Title: Depleted MORB Mantle of Workmann & Hart 2005

Liquid Composition:
Pressure Temperature mass SiO2 TiO2 Al2O3 Fe2O3 Cr2O3 FeO MnO MgO NiO CaO Na2O 
44001.00 1396.04 0.000000 ---
43901.00 1395.83 0.000000 ---
43801.00 1395.63 0.000000 ---
43701.00 1395.42 0.000000 ---
43601.00 1395.21 0.000000 ---
43501.00 1395.00 0.000000 ---
43401.00 1394.79 0.000000 ---
43301.00 1394.58 0.000000 ---
43201.00 1394.37 0.000000 ---
43101.00 1394.16 0.000000 ---
43001.00 1393.95 0.000000 ---
42901.00 1393.74 0.000000 ---
42801.00 1393.53 0.000000 ---
42701.00 1393.32 0.000000 ---
42601.00 1393.11 0.000000 ---
42501.00 1392.91 0.000000 ---
42401.00 1392.70 0.000000 ---
42301.00 1392.49 0.000000 ---
42201.00 1392.28 0.000000 ---
42101.00 1392.07 0.000000 ---
42001.00 1391.86 0.000000 ---
41901.00 1391.65 0.000000 ---
41801.00 1391.44 0.000000 ---
41701.00 1391.23 0.000000 ---
41601.00 1391.02 0.000000 ---
41501.00 1390.81 0.000000 ---
41401.00 1390.60 0.000000 ---
41301.00 1390.39 0.000000 ---
41201.00 1390.18 0.000000 ---
41101.00 1389.97 0.000000 ---
41001.00 1389.76 0.000000 ---
40901.00 1389.55 0.000000 ---
40801.00 1389.34 0.000000 ---
40701.00 1389.13 0.000000 ---
40601.00 1388.92 0.000000 ---
40501.00 1388.71 0.000000 ---
40401.00 1388.50 0.000000 ---
40301.00 1388.29 0.000000 ---
40201.00 1388.07 0.000000 ---
40101.00 1387.86 0.000000 ---
40001.00 1387.65 0.000000 ---
39901.00 1387.44 0.000000 ---
39801.00 1387.23 0.000000 ---
39701.00 1387.02 0.000000 ---
39601.00 1386.81 0.000000 ---
39501.00 1386.60 0.000000 ---
39401.00 1386.39 0.000000 ---
39301.00 1386.18 0.000000 ---
39201.00 1385.97 0.000000 ---
39101.00 1385.76 0.000000 ---
39001.00 1385.54 0.000000 ---
38901.00 1385.33 0.000000 ---
38801.00 1385.12 0.000000 ---
38701.00 1384.91 0.000000 ---
38601.00 1384.70 0.000000 ---
38501.00 1384.49 0.000000 ---
38401.00 1384.27 0.000000 ---
38301.00 1384.06 0.000000 ---
38201.00 1383.85 0.000000 ---
38101.00 1383.64 0.000000 ---
38001.00 1383.43 0.000000 ---
37901.00 1383.22 0.000000 ---
37801.00 1383.00 0.000000 ---
37701.00 1382.79 0.000000 ---
37601.00 1382.58 0.000000 ---
37501.00 1382.37 0.000000 ---
37401.00 1382.15 0.000000 ---
37301.00 1381.94 0.000000 ---
37201.00 1381.73 0.000000 ---
37101.00 1381.52 0.000000 ---
37001.00 1381.30 0.000000 ---
36901.00 1381.09 0.000000 ---
36801.00 1380.88 0.000000 ---
36701.00 1380.66 0.000000 ---
36601.00 1380.45 0.000000 ---
36501.00 1380.24 0.000000 ---
36401.00 1380.02 0.000000 ---
36301.00 1379.81 0.000000 ---
36201.00 1379.60 0.000000 ---
36101.00 1379.38 0.000000 ---
36001.00 1379.17 0.000000 ---
35901.00 1378.96 0.000000 ---
35801.00 1378.74 0.000000 ---
35701.00 1378.53 0.000000 ---
35601.00 1378.31 0.000000 ---
35501.00 1378.10 0.000000 ---
35401.00 1377.88 0.000000 ---
35301.00 1377.67 0.000000 ---
35201.00 1377.46 0.000000 ---
35101.00 1377.24 0.000000 ---
35001.00 1377.03 0.000000 ---
34901.00 1376.81 0.000000 ---
34801.00 1376.60 0.000000 ---
34701.00 1376.38 0.000000 ---
34601.00 1376.17 0.000000 ---
34501.00 1375.95 0.000000 ---
34401.00 1375.73 0.000000 ---
34301.00 1375.52 0.000000 ---
34201.00 1375.30 0.000000 ---
34101.00 1375.09 0.000000 ---
34001.00 1374.87 0.000000 ---
33901.00 1374.65 0.000000 ---
33801.00 1374.44 0.000000 ---
33701.00 1374.22 0.000000 ---
33601.00 1374.00 0.000000 ---
33501.00 1373.79 0.000000 ---
33401.00 1373.57 0.000000 ---
33301.00 1373.35 0.000000 ---
33201.00 1373.14 0.000000 ---
33101.00 1372.92 0.000000 ---
33001.00 1372.70 0.000000 ---
32901.00 1372.48 0.000000 ---
32801.00 1372.26 0.000000 ---
32701.00 1372.05 0.000000 ---
32601.00 1371.83 0.000000 ---
32501.00 1371.61 0.000000 ---
32401.00 1371.39 0.000000 ---
32301.00 1371.17 0.000000 ---
32201.00 1370.95 0.000000 ---
32101.00 1370.73 0.000000 ---
32001.00 1370.51 0.000000 ---
31901.00 1370.29 0.000000 ---
31801.00 1370.07 0.000000 ---
31701.00 1369.85 0.000000 ---
31601.00 1369.63 0.000000 ---
31501.00 1369.41 0.000000 ---
31401.00 1369.19 0.000000 ---
31301.00 1368.97 0.000000 ---
31201.00 1368.75 0.000000 ---
31101.00 1368.53 0.000000 ---
31001.00 1368.31 0.000000 ---
30901.00 1368.09 0.000000 ---
30801.00 1367.86 0.000000 ---
30701.00 1367.64 0.000000 ---
30601.00 1367.42 0.000000 ---
30501.00 1367.20 0.000000 ---
30401.00 1366.97 0.000000 ---
30301.00 1366.75 0.000000 ---
30201.00 1366.53 0.000000 ---
30101.00 1366.30 0.000000 ---
30001.00 1366.08 0.000000 ---
29901.00 1365.85 0.000000 ---
29801.00 1365.63 0.000000 ---
29701.00 1365.40 0.000000 ---
29601.00 1365.18 0.000000 ---
29501.00 1364.95 0.000000 ---
29401.00 1364.73 0.000000 ---
29301.00 1364.50 0.000000 ---
29201.00 1364.27 0.000000 ---
29101.00 1364.05 0.000000 ---
29001.00 1363.82 0.000000 ---
28901.00 1363.59 0.000000 ---
28801.00 1363.37 0.000000 ---
28701.00 1363.14 0.000000 ---
28601.00 1362.91 0.000000 ---
28501.00 1362.68 0.000000 ---
28401.00 1362.45 0.000000 ---
28301.00 1362.22 0.000000 ---
28201.00 1361.99 0.000000 ---
28101.00 1361.76 0.000000 ---
28001.00 1361.53 0.000000 ---
27901.00 1361.30 0.000000 ---
27801.00 1361.07 0.000000 ---
27701.00 1360.84 0.000000 ---
27601.00 1360.60 0.000000 ---
27501.00 1360.37 0.000000 ---
27401.00 1360.14 0.000000 ---
27301.00 1359.91 0.000000 ---
27201.00 1359.67 0.000000 ---
27101.00 1359.44 0.000000 ---
27001.00 1359.20 0.000000 ---
26901.00 1358.97 0.000000 ---
26801.00 1358.73 0.000000 ---
26701.00 1358.49 0.000000 ---
26601.00 1358.26 0.000000 ---
26501.00 1358.02 0.000000 ---
26401.00 1357.78 0.000000 ---
26301.00 1357.54 0.000000 ---
26201.00 1357.30 0.000000 ---
26101.00 1357.06 0.000000 ---
26001.00 1356.82 0.000000 ---
25901.00 1356.58 0.000000 ---
25801.00 1356.34 0.000000 ---
25701.00 1356.10 0.000000 ---
25601.00 1355.86 0.000000 ---
25501.00 1355.61 0.000000 ---
25401.00 1355.37 0.000000 ---
25301.00 1355.13 0.000000 ---
25201.00 1354.88 0.000000 ---
25101.00 1354.63 0.000000 ---
25001.00 1354.39 0.000000 ---
24901.00 1354.14 0.000000 ---
24801.00 1353.89 0.000000 ---
24701.00 1353.64 0.000000 ---
24601.00 1353.39 0.000000 ---
24501.00 1353.14 0.000000 ---
24401.00 1352.89 0.000000 ---
24301.00 1352.64 0.000000 ---
24201.00 1352.38 0.000000 ---
24101.00 1352.13 0.000000 ---
24001.00 1351.87 0.000000 ---
23901.00 1351.62 0.000000 ---
23801.00 1351.36 0.000000 ---
23701.00 1351.10 0.000000 ---
23601.00 1350.84 0.000000 ---
23501.00 1350.58 0.000000 ---
23401.00 1350.32 0.000000 ---
23301.00 1350.06 0.000000 ---
23201.00 1349.80 0.000000 ---
23101.00 1349.53 0.000000 ---
23001.00 1349.26 0.000000 ---
22901.00 1349.00 0.000000 ---
22801.00 1348.73 0.000000 ---
22701.00 1348.46 0.000000 ---
22601.00 1348.19 0.000000 ---
22501.00 1347.91 0.000000 ---
22401.00 1347.64 0.000000 ---
22301.00 1347.36 0.000000 ---
22201.00 1347.09 0.000000 ---
22101.00 1346.81 0.000000 ---
22001.00 1346.53 0.000000 ---
21901.00 1346.24 0.000000 ---
21801.00 1345.96 0.000000 ---
21701.00 1345.67 0.000000 ---
21601.00 1345.38 0.000000 ---
21501.00 1345.09 0.000000 ---
21401.00 1344.80 0.000000 ---
21301.00 1344.51 0.000000 ---
21201.00 1344.21 0.000000 ---
21101.00 1343.91 0.000000 ---
21001.00 1343.61 0.000000 ---
20901.00 1343.31 0.000000 ---
20801.00 1343.00 0.000000 ---
20701.00 1342.69 0.000000 ---
20601.00 1342.38 0.000000 ---
20501.00 1342.06 0.000000 ---
20401.00 1341.74 0.000000 ---
20301.00 1341.42 0.000000 ---
20201.00 1341.10 0.000000 ---
20101.00 1340.77 0.000000 ---
20001.00 1340.54 0.000000 ---
19901.00 1340.34 0.000000 ---
19801.00 1340.15 0.000000 ---
19701.00 1339.95 0.000000 ---
19601.00 1339.76 0.000000 ---
19501.00 1339.56 0.000000 ---
19401.00 1339.37 0.000000 ---
19301.00 1339.17 0.000000 ---
19201.00 1338.97 0.000000 ---
19101.00 1338.78 0.000000 ---
19001.00 1338.58 0.000000 ---
18901.00 1338.39 0.000000 ---
18801.00 1338.19 0.000000 ---
18701.00 1338.00 0.000000 ---
18601.00 1337.80 0.000000 ---
18501.00 1337.60 0.000000 ---
18401.00 1337.41 0.000000 ---
18301.00 1337.21 0.000000 ---
18201.00 1337.02 0.000000 ---
18101.00 1336.82 0.000000 ---
18001.00 1336.62 0.000000 ---
17901.00 1336.43 0.000000 ---
17801.00 1336.23 0.000000 ---
17701.00 1336.04 0.000000 ---
17601.00 1335.84 0.000000 ---
17501.00 1335.64 0.000000 ---
17401.00 1335.45 0.000000 ---
17301.00 1335.25 0.000000 ---
17201.00 1335.05 0.000000 ---
17101.00 1334.86 0.000000 ---
17001.00 1334.66 0.000000 ---
16901.00 1334.47 0.000000 ---
16801.00 1334.27 0.000000 ---
16701.00 1334.07 0.000000 ---
16601.00 1333.88 0.000000 ---
16501.00 1333.68 0.000000 ---
16401.00 1333.48 0.000000 ---
16301.00 1333.29 0.000000 ---
16201.00 1333.09 0.000000 ---
16101.00 1332.89 0.000000 ---
16001.00 1332.70 0.000000 ---
15901.00 1332.50 0.000000 ---
15801.00 1332.30 0.000000 ---
15701.00 1332.11 0.000000 ---
15601.00 1331.91 0.000000 ---
15501.00 1331.71 0.000000 ---
15401.00 1331.38 0.033373 49.4726 0.757113 17.1733 0.119461 0.294497 6.03861 0.0231136 10.7541 0.0132374 4.93362 10.4203
15301.00 1331.04 0.069339 49.523 0.756219 17.1876 0.12091 0.290685 6.02803 0.0228496 10.7492 0.0130817 4.98365 10.3248
15201.00 1330.70 0.105880 49.573 0.75535 17.2015 0.122391 0.286892 6.01762 0.0225871 10.7444 0.0129269 5.03435 10.2289
15101.00 1330.35 0.143017 49.6227 0.754506 17.2153 0.123905 0.283118 6.00738 0.0223261 10.7398 0.012773 5.08572 10.1325
15001.00 1330.01 0.180771 49.6719 0.753688 17.2287 0.125453 0.279364 5.99731 0.0220665 10.7354 0.0126201 5.13777 10.0357
14901.00 1329.66 0.219163 49.7208 0.752896 17.2418 0.127037 0.275629 5.98742 0.0218084 10.7312 0.0124681 5.1905 9.93841
14801.00 1329.31 0.258217 49.7693 0.752129 17.2546 0.128656 0.271914 5.9777 0.0215518 10.7272 0.012317 5.24394 9.84069
14701.00 1328.96 0.297957 49.8173 0.751388 17.2672 0.130313 0.268219 5.96816 0.0212967 10.7234 0.0121669 5.29808 9.74252
14601.00 1328.60 0.338409 49.8649 0.750673 17.2795 0.132007 0.264546 5.9588 0.0210431 10.7197 0.0120177 5.35294 9.64392
14501.00 1328.25 0.379597 49.912 0.749983 17.2914 0.133741 0.260894 5.94961 0.020791 10.7163 0.0118694 5.40852 9.54488
14401.00 1327.89 0.421550 49.9587 0.749319 17.3031 0.135516 0.257263 5.9406 0.0205404 10.713 0.0117221 5.46483 9.44541
14301.00 1327.53 0.464297 50.0049 0.748681 17.3144 0.137332 0.253655 5.93178 0.0202913 10.7099 0.0115757 5.52189 9.34551
14201.00 1327.17 0.507867 50.0507 0.748069 17.3255 0.13919 0.25007 5.92313 0.0200437 10.707 0.0114303 5.5797 9.2452
14101.00 1326.81 0.552292 50.0959 0.747482 17.3362 0.141093 0.246507 5.91466 0.0197976 10.7043 0.0112858 5.63827 9.14447
14001.00 1326.44 0.597604 50.1407 0.74692 17.3467 0.143041 0.242969 5.90637 0.019553 10.7017 0.0111423 5.6976 9.04333
13901.00 1326.07 0.643839 50.1849 0.746383 17.3568 0.145035 0.239454 5.89826 0.0193099 10.6994 0.0109997 5.75771 8.94179
13801.00 1325.70 0.691031 50.2286 0.745871 17.3666 0.147077 0.235964 5.89032 0.0190684 10.6972 0.010858 5.8186 8.83985
13701.00 1325.32 0.739219 50.2718 0.745384 17.376 0.149168 0.232498 5.88257 0.0188284 10.6951 0.0107173 5.88029 8.73753
13601.00 1324.94 0.788442 50.3145 0.74492 17.3852 0.15131 0.229058 5.87499 0.0185899 10.6933 0.0105775 5.94277 8.63483
13501.00 1324.56 0.838742 50.3566 0.744481 17.394 0.153504 0.225645 5.86758 0.018353 10.6915 0.0104387 6.00605 8.53175
13401.00 1324.18 0.890160 50.3981 0.744065 17.4026 0.155751 0.222257 5.86035 0.0181175 10.69 0.0103008 6.07015 8.42832
13301.00 1323.79 0.942744 50.4391 0.743672 17.4107 0.158052 0.218897 5.85329 0.0178836 10.6886 0.0101639 6.13506 8.32453
13201.00 1323.40 0.996539 50.4795 0.743301 17.4186 0.16041 0.215564 5.8464 0.0176513 10.6873 0.0100279 6.20079 8.22041
13101.00 1323.01 1.051596 50.5194 0.742952 17.4261 0.162826 0.212259 5.83967 0.0174205 10.6862 0.00989291 6.26734 8.11595
13001.00 1322.61 1.056603 50.5585 0.742637 17.4333 0.165304 0.20897 5.8332 0.0171912 10.6853 0.00975886 6.33486 8.01099
12901.00 1322.21 1.056659 50.5968 0.742357 17.4401 0.167845 0.205697 5.82701 0.0169635 10.6847 0.00962578 6.40336 7.90549
12801.00 1321.81 1.056728 50.6344 0.742113 17.4466 0.170453 0.20244 5.8211 0.0167374 10.6843 0.00949368 6.47286 7.79946
12701.00 1321.41 1.056809 50.6712 0.741905 17.4527 0.173129 0.199199 5.81547 0.0165128 10.6842 0.00936255 6.54339 7.69291
12601.00 1321.01 1.056904 50.7072 0.741734 17.4585 0.175876 0.195975 5.81012 0.0162898 10.6844 0.00923239 6.61494 7.58583
12501.00 1320.60 1.057014 50.7423 0.741599 17.4639 0.178695 0.192768 5.80505 0.0160683 10.6848 0.00910321 6.68754 7.47824
12401.00 1320.20 1.057139 50.7766 0.741502 17.4689 0.18159 0.189578 5.80027 0.0158485 10.6854 0.00897499 6.7612 7.37012
12301.00 1319.79 1.057279 50.8101 0.741442 17.4736 0.184561 0.186407 5.79579 0.0156301 10.6863 0.00884775 6.83594 7.2615
12201.00 1319.38 1.057436 50.8426 0.74142 17.4778 0.187613 0.183254 5.79159 0.0154133 10.6874 0.00872148 6.91176 7.15237
12101.00 1318.96 1.057610 50.8742 0.741436 17.4818 0.190746 0.18012 5.78769 0.0151981 10.6888 0.00859617 6.98869 7.04274
12001.00 1318.55 1.057802 50.905 0.74149 17.4853 0.193964 0.177005 5.78408 0.0149845 10.6904 0.00847183 7.06674 6.93261
11901.00 1318.13 1.058014 50.9348 0.741583 17.4884 0.19727 0.173911 5.78077 0.0147724 10.6922 0.00834846 7.14592 6.82201
11801.00 1317.71 1.058246 50.9636 0.741714 17.4912 0.200665 0.170836 5.77776 0.0145619 10.6943 0.00822605 7.22623 6.71092
11701.00 1317.28 1.058499 50.9915 0.741883 17.4935 0.204154 0.167783 5.77505 0.0143529 10.6966 0.00810461 7.30771 6.59936
11601.00 1316.86 1.058775 51.0184 0.742091 17.4955 0.207737 0.164751 5.77263 0.0141455 10.6991 0.00798413 7.39035 6.48735
11501.00 1316.43 1.059074 51.0443 0.742336 17.4971 0.211419 0.161741 5.77051 0.0139396 10.7018 0.00786461 7.47417 6.37489
11401.00 1316.00 1.059397 51.0692 0.74262 17.4983 0.215202 0.158753 5.76869 0.0137353 10.7047 0.00774605 7.55917 6.26199
11301.00 1315.56 1.059747 51.093 0.742942 17.499 0.219088 0.155789 5.76717 0.0135326 10.7077 0.00762845 7.64538 6.14866
11201.00 1315.12 1.060124 51.1159 0.743301 17.4994 0.223082 0.152848 5.76594 0.0133314 10.711 0.0075118 7.73278 6.03493
11101.00 1314.68 1.060530 51.1377 0.743697 17.4993 0.227185 0.149932 5.765 0.0131318 10.7144 0.00739612 7.8214 5.92081
11001.00 1314.24 1.060966 51.1584 0.744129 17.4989 0.231401 0.147041 5.76435 0.0129338 10.718 0.00728139 7.91124 5.80631
10901.00 1313.79 1.061435 51.1781 0.744596 17.498 0.235733 0.144175 5.76398 0.0127373 10.7217 0.00716762 8.00229 5.69145
10801.00 1313.34 1.061937 51.1967 0.745098 17.4968 0.240183 0.141335 5.76389 0.0125423 10.7256 0.00705481 8.09458 5.57625
10701.00 1312.88 1.062475 51.2143 0.745633 17.4951 0.244754 0.138522 5.76408 0.012349 10.7295 0.00694294 8.18809 5.46073
10601.00 1312.42 1.063050 51.2308 0.7462 17.493 0.24945 0.135736 5.76454 0.0121571 10.7336 0.00683204 8.28283 5.34491
10501.00 1311.96 1.063665 51.2462 0.746798 17.4905 0.254274 0.132979 5.76526 0.0119669 10.7377 0.00672209 8.37879 5.22882
10401.00 1311.49 1.064322 51.2605 0.747425 17.4876 0.259227 0.13025 5.76623 0.0117782 10.7419 0.00661309 8.47598 5.11249
10301.00 1311.02 1.065024 51.2738 0.748079 17.4843 0.264313 0.127551 5.76745 0.0115911 10.7462 0.00650505 8.57439 4.99594
10201.00 1310.54 1.065772 51.286 0.748759 17.4805 0.269534 0.124882 5.7689 0.0114056 10.7504 0.00639797 8.674 4.8792
10101.00 1310.06 1.066569 51.2971 0.74946 17.4764 0.274893 0.122245 5.77057 0.0112216 10.7547 0.00629184 8.77481 4.7623
10001.00 1309.57 1.067419 51.3073 0.750182 17.4719 0.280393 0.119639 5.77245 0.0110393 10.7589 0.00618667 8.87681 4.64528
9901.00 1309.08 1.068325 51.3164 0.750921 17.4669 0.286034 0.117066 5.77452 0.0108585 10.7631 0.00608245 8.97998 4.52817
9801.00 1308.59 1.069288 51.3245 0.751674 17.4616 0.291819 0.114526 5.77678 0.0106793 10.7672 0.0059792 9.0843 4.41101
9701.00 1308.08 1.070314 51.3316 0.752437 17.4559 0.297751 0.112021 5.77919 0.0105017 10.7711 0.00587691 9.18975 4.29384
9601.00 1307.57 1.071406 51.3378 0.753206 17.4498 0.303829 0.109551 5.78175 0.0103257 10.775 0.00577559 9.2963 4.1767
9501.00 1307.06 1.072567 51.3431 0.753976 17.4433 0.310056 0.107116 5.78442 0.0101513 10.7787 0.00567523 9.40393 4.05965
9401.00 1306.54 1.073801 51.3474 0.754742 17.4365 0.316432 0.104719 5.7872 0.00997847 10.7822 0.00557585 9.5126 3.94271
9301.00 1306.01 1.075114 51.351 0.7555 17.4293 0.322958 0.102359 5.79005 0.00980732 10.7854 0.00547744 9.62227 3.82596
9201.00 1305.47 1.076510 51.3537 0.756243 17.4217 0.329633 0.100038 5.79294 0.0096378 10.7884 0.00538001 9.73292 3.70943
9101.00 1304.93 1.077994 51.3557 0.756964 17.4138 0.336457 0.0977567 5.79585 0.00946993 10.791 0.00528356 9.84448 3.59318
9001.00 1304.38 1.079571 51.357 0.757658 17.4056 0.343429 0.0955156 5.79876 0.00930371 10.7934 0.0051881 9.95692 3.47728
8901.00 1303.82 1.081248 51.3577 0.758314 17.397 0.350547 0.0933159 5.80161 0.00913916 10.7953 0.00509363 10.0702 3.36177
8801.00 1303.25 1.083029 51.3579 0.758927 17.3882 0.357809 0.0911586 5.80439 0.0089763 10.7968 0.00500017 10.1842 3.24674
8701.00 1302.67 1.084923 51.3575 0.759485 17.379 0.365212 0.0890446 5.80704 0.00881513 10.7978 0.00490771 10.2989 3.13223
8601.00 1302.08 1.086935 51.3568 0.75998 17.3696 0.372753 0.0869749 5.80954 0.00865568 10.7983 0.00481627 10.4142 3.01833
8501.00 1301.49 1.089074 51.3558 0.760401 17.3599 0.380427 0.0849505 5.81184 0.00849796 10.7983 0.00472585 10.5301 2.90511
8401.00 1300.88 1.091347 51.3546 0.760736 17.35 0.388228 0.0829723 5.81389 0.00834199 10.7976 0.00463647 10.6464 2.79263
8301.00 1300.26 1.093763 51.3532 0.760973 17.3398 0.396152 0.0810415 5.81564 0.00818779 10.7963 0.00454812 10.7631 2.68098
8201.00 1299.63 1.096330 51.3519 0.761098 17.3294 0.40419 0.079159 5.81705 0.00803539 10.7943 0.00446083 10.8801 2.57025
8101.00 1298.99 1.099059 51.3508 0.761097 17.3188 0.412334 0.0773259 5.81806 0.00788479 10.7916 0.0043746 10.9973 2.4605
8001.00 1298.33 1.101958 51.3499 0.760954 17.308 0.420576 0.0755433 5.81861 0.00773604 10.788 0.00428945 11.1145 2.35185
7901.00 1297.66 1.105039 51.3495 0.760654 17.297 0.428905 0.0738123 5.81864 0.00758915 10.7836 0.00420538 11.2317 2.24437
7801.00 1296.98 1.108312 51.3496 0.760177 17.2859 0.43731 0.0721339 5.8181 0.00744415 10.7783 0.00412242 11.3488 2.13815
7701.00 1296.28 1.111789 51.3505 0.759507 17.2747 0.445779 0.0705094 5.81691 0.00730108 10.772 0.00404057 11.4655 2.03331
7601.00 1295.57 1.115481 51.3522 0.758621 17.2633 0.454296 0.0689399 5.81501 0.00715996 10.7647 0.00395985 11.5818 1.92994
7501.00 1294.84 1.119401 51.3551 0.7575 17.2519 0.462848 0.0674266 5.81233 0.00702083 10.7564 0.00388028 11.6974 1.82815
7401.00 1294.09 1.123560 51.3593 0.756121 17.2403 0.471418 0.0659709 5.80879 0.00688372 10.747 0.00380188 11.8124 1.72804
7301.00 1293.32 1.127971 51.365 0.75446 17.2287 0.479988 0.0645741 5.80431 0.00674867 10.7364 0.00372466 11.9264 1.62973
7201.00 1292.53 1.132644 51.3724 0.752492 17.217 0.48854 0.0632374 5.79882 0.00661573 10.7246 0.00364865 12.0393 1.53334
7101.00 1291.72 1.137592 51.3818 0.750191 17.2052 0.497052 0.0619625 5.79224 0.00648494 10.7115 0.00357386 12.1509 1.43899
7001.00 1290.89 1.142823 51.3934 0.74753 17.1934 0.505504 0.0607508 5.78448 0.00635634 10.6972 0.00350033 12.2611 1.3468
6901.00 1290.04 1.148346 51.4075 0.744482 17.1815 0.513873 0.059604 5.77545 0.00622998 10.6815 0.00342808 12.3695 1.25691
6801.00 1289.16 1.154165 51.4244 0.741017 17.1696 0.522135 0.0585237 5.76507 0.00610592 10.6643 0.00335712 12.4761 1.16944
6701.00 1288.26 1.160283 51.4442 0.737106 17.1576 0.530265 0.0575118 5.75325 0.00598421 10.6458 0.00328751 12.5805 1.08453
6601.00 1287.33 1.166698 51.4674 0.73272 17.1455 0.538237 0.0565701 5.7399 0.00586492 10.6257 0.00321925 12.6825 1.00231
6501.00 1286.38 1.173400 51.4942 0.727829 17.1333 0.546026 0.0557006 5.72494 0.0057481 10.6042 0.00315239 12.7819 0.922937
