Title: Depleted MORB Mantle of Workmann & Hart 2005

Solid Composition:
Pressure Temperature mass SiO2 TiO2 Al2O3 Fe2O3 Cr2O3 FeO MnO MgO NiO CaO Na2O 
44001.00 1396.04 100.138983 44.6479 0.12982 3.97448 0.190735 0.569209 7.99689 0.12982 38.6762 0.239667 3.1656 0.279611
43901.00 1395.83 100.138983 44.6479 0.12982 3.97448 0.190735 0.569209 7.99689 0.12982 38.6762 0.239667 3.1656 0.279611
43801.00 1395.63 100.138983 44.6479 0.12982 3.97448 0.190735 0.569209 7.99689 0.12982 38.6762 0.239667 3.1656 0.279611
43701.00 1395.42 100.138983 44.6479 0.12982 3.97448 0.190735 0.569209 7.99689 0.12982 38.6762 0.239667 3.1656 0.279611
43601.00 1395.21 100.138983 44.6479 0.12982 3.97448 0.190735 0.569209 7.99689 0.12982 38.6762 0.239667 3.1656 0.279611
43501.00 1395.00 100.138983 44.6479 0.12982 3.97448 0.190735 0.569209 7.99689 0.12982 38.6762 0.239667 3.1656 0.279611
43401.00 1394.79 100.138983 44.6479 0.12982 3.97448 0.190735 0.569209 7.99689 0.12982 38.6762 0.239667 3.1656 0.279611
43301.00 1394.58 100.138983 44.6479 0.12982 3.97448 0.190735 0.569209 7.99689 0.12982 38.6762 0.239667 3.1656 0.279611
43201.00 1394.37 100.138983 44.6479 0.12982 3.97448 0.190735 0.569209 7.99689 0.12982 38.6762 0.239667 3.1656 0.279611
43101.00 1394.16 100.138983 44.6479 0.12982 3.97448 0.190735 0.569209 7.99689 0.12982 38.6762 0.239667 3.1656 0.279611
43001.00 1393.95 100.138983 44.6479 0.12982 3.97448 0.190735 0.569209 7.99689 0.12982 38.6762 0.239667 3.1656 0.279611
42901.00 1393.74 100.138983 44.6479 0.12982 3.97448 0.190735 0.569209 7.99689 0.12982 38.6762 0.239667 3.1656 0.279611
42801.00 1393.53 100.138983 44.6479 0.12982 3.97448 0.190735 0.569209 7.99689 0.12982 38.6762 0.239667 3.1656 0.279611
42701.00 1393.32 100.138983 44.6479 0.12982 3.97448 0.190735 0.569209 7.99689 0.12982 38.6762 0.239667 3.1656 0.279611
42601.00 1393.11 100.138983 44.6479 0.12982 3.97448 0.190735 0.569209 7.99689 0.12982 38.6762 0.239667 3.1656 0.279611
42501.00 1392.91 100.138983 44.6479 0.12982 3.97448 0.190735 0.569209 7.99689 0.12982 38.6762 0.239667 3.1656 0.279611
42401.00 1392.70 100.138983 44.6479 0.12982 3.97448 0.190735 0.569209 7.99689 0.12982 38.6762 0.239667 3.1656 0.279611
42301.00 1392.49 100.138983 44.6479 0.12982 3.97448 0.190735 0.569209 7.99689 0.12982 38.6762 0.239667 3.1656 0.279611
42201.00 1392.28 100.138983 44.6479 0.12982 3.97448 0.190735 0.569209 7.99689 0.12982 38.6762 0.239667 3.1656 0.279611
42101.00 1392.07 100.138983 44.6479 0.12982 3.97448 0.190735 0.569209 7.99689 0.12982 38.6762 0.239667 3.1656 0.279611
42001.00 1391.86 100.138983 44.6479 0.12982 3.97448 0.190735 0.569209 7.99689 0.12982 38.6762 0.239667 3.1656 0.279611
41901.00 1391.65 100.138983 44.6479 0.12982 3.97448 0.190735 0.569209 7.99689 0.12982 38.6762 0.239667 3.1656 0.279611
41801.00 1391.44 100.138983 44.6479 0.12982 3.97448 0.190735 0.569209 7.99689 0.12982 38.6762 0.239667 3.1656 0.279611
41701.00 1391.23 100.138983 44.6479 0.12982 3.97448 0.190735 0.569209 7.99689 0.12982 38.6762 0.239667 3.1656 0.279611
41601.00 1391.02 100.138983 44.6479 0.12982 3.97448 0.190735 0.569209 7.99689 0.12982 38.6762 0.239667 3.1656 0.279611
41501.00 1390.81 100.138983 44.6479 0.12982 3.97448 0.190735 0.569209 7.99689 0.12982 38.6762 0.239667 3.1656 0.279611
41401.00 1390.60 100.138983 44.6479 0.12982 3.97448 0.190735 0.569209 7.99689 0.12982 38.6762 0.239667 3.1656 0.279611
41301.00 1390.39 100.138983 44.6479 0.12982 3.97448 0.190735 0.569209 7.99689 0.12982 38.6762 0.239667 3.1656 0.279611
41201.00 1390.18 100.138983 44.6479 0.12982 3.97448 0.190735 0.569209 7.99689 0.12982 38.6762 0.239667 3.1656 0.279611
41101.00 1389.97 100.138983 44.6479 0.12982 3.97448 0.190735 0.569209 7.99689 0.12982 38.6762 0.239667 3.1656 0.279611
41001.00 1389.76 100.138983 44.6479 0.12982 3.97448 0.190735 0.569209 7.99689 0.12982 38.6762 0.239667 3.1656 0.279611
40901.00 1389.55 100.138983 44.6479 0.12982 3.97448 0.190735 0.569209 7.99689 0.12982 38.6762 0.239667 3.1656 0.279611
40801.00 1389.34 100.138983 44.6479 0.12982 3.97448 0.190735 0.569209 7.99689 0.12982 38.6762 0.239667 3.1656 0.279611
40701.00 1389.13 100.138983 44.6479 0.12982 3.97448 0.190735 0.569209 7.99689 0.12982 38.6762 0.239667 3.1656 0.279611
40601.00 1388.92 100.138983 44.6479 0.12982 3.97448 0.190735 0.569209 7.99689 0.12982 38.6762 0.239667 3.1656 0.279611
40501.00 1388.71 100.138983 44.6479 0.12982 3.97448 0.190735 0.569209 7.99689 0.12982 38.6762 0.239667 3.1656 0.279611
40401.00 1388.50 100.138983 44.6479 0.12982 3.97448 0.190735 0.569209 7.99689 0.12982 38.6762 0.239667 3.1656 0.279611
40301.00 1388.29 100.138983 44.6479 0.12982 3.97448 0.190735 0.569209 7.99689 0.12982 38.6762 0.239667 3.1656 0.279611
40201.00 1388.07 100.138983 44.6479 0.12982 3.97448 0.190735 0.569209 7.99689 0.12982 38.6762 0.239667 3.1656 0.279611
40101.00 1387.86 100.138983 44.6479 0.12982 3.97448 0.190735 0.569209 7.99689 0.12982 38.6762 0.239667 3.1656 0.279611
40001.00 1387.65 100.138983 44.6479 0.12982 3.97448 0.190735 0.569209 7.99689 0.12982 38.6762 0.239667 3.1656 0.279611
39901.00 1387.44 100.138983 44.6479 0.12982 3.97448 0.190735 0.569209 7.99689 0.12982 38.6762 0.239667 3.1656 0.279611
39801.00 1387.23 100.138983 44.6479 0.12982 3.97448 0.190735 0.569209 7.99689 0.12982 38.6762 0.239667 3.1656 0.279611
39701.00 1387.02 100.138983 44.6479 0.12982 3.97448 0.190735 0.569209 7.99689 0.12982 38.6762 0.239667 3.1656 0.279611
39601.00 1386.81 100.138983 44.6479 0.12982 3.97448 0.190735 0.569209 7.99689 0.12982 38.6762 0.239667 3.1656 0.279611
39501.00 1386.60 100.138983 44.6479 0.12982 3.97448 0.190735 0.569209 7.99689 0.12982 38.6762 0.239667 3.1656 0.279611
39401.00 1386.39 100.138983 44.6479 0.12982 3.97448 0.190735 0.569209 7.99689 0.12982 38.6762 0.239667 3.1656 0.279611
39301.00 1386.18 100.138983 44.6479 0.12982 3.97448 0.190735 0.569209 7.99689 0.12982 38.6762 0.239667 3.1656 0.279611
39201.00 1385.97 100.138983 44.6479 0.12982 3.97448 0.190735 0.569209 7.99689 0.12982 38.6762 0.239667 3.1656 0.279611
39101.00 1385.76 100.138983 44.6479 0.12982 3.97448 0.190735 0.569209 7.99689 0.12982 38.6762 0.239667 3.1656 0.279611
39001.00 1385.54 100.138983 44.6479 0.12982 3.97448 0.190735 0.569209 7.99689 0.12982 38.6762 0.239667 3.1656 0.279611
38901.00 1385.33 100.138983 44.6479 0.12982 3.97448 0.190735 0.569209 7.99689 0.12982 38.6762 0.239667 3.1656 0.279611
38801.00 1385.12 100.138983 44.6479 0.12982 3.97448 0.190735 0.569209 7.99689 0.12982 38.6762 0.239667 3.1656 0.279611
38701.00 1384.91 100.138983 44.6479 0.12982 3.97448 0.190735 0.569209 7.99689 0.12982 38.6762 0.239667 3.1656 0.279611
38601.00 1384.70 100.138983 44.6479 0.12982 3.97448 0.190735 0.569209 7.99689 0.12982 38.6762 0.239667 3.1656 0.279611
38501.00 1384.49 100.138983 44.6479 0.12982 3.97448 0.190735 0.569209 7.99689 0.12982 38.6762 0.239667 3.1656 0.279611
38401.00 1384.27 100.138983 44.6479 0.12982 3.97448 0.190735 0.569209 7.99689 0.12982 38.6762 0.239667 3.1656 0.279611
38301.00 1384.06 100.138983 44.6479 0.12982 3.97448 0.190735 0.569209 7.99689 0.12982 38.6762 0.239667 3.1656 0.279611
38201.00 1383.85 100.138983 44.6479 0.12982 3.97448 0.190735 0.569209 7.99689 0.12982 38.6762 0.239667 3.1656 0.279611
38101.00 1383.64 100.138983 44.6479 0.12982 3.97448 0.190735 0.569209 7.99689 0.12982 38.6762 0.239667 3.1656 0.279611
38001.00 1383.43 100.138983 44.6479 0.12982 3.97448 0.190735 0.569209 7.99689 0.12982 38.6762 0.239667 3.1656 0.279611
37901.00 1383.22 100.138983 44.6479 0.12982 3.97448 0.190735 0.569209 7.99689 0.12982 38.6762 0.239667 3.1656 0.279611
37801.00 1383.00 100.138983 44.6479 0.12982 3.97448 0.190735 0.569209 7.99689 0.12982 38.6762 0.239667 3.1656 0.279611
37701.00 1382.79 100.138983 44.6479 0.12982 3.97448 0.190735 0.569209 7.99689 0.12982 38.6762 0.239667 3.1656 0.279611
37601.00 1382.58 100.138983 44.6479 0.12982 3.97448 0.190735 0.569209 7.99689 0.12982 38.6762 0.239667 3.1656 0.279611
37501.00 1382.37 100.138983 44.6479 0.12982 3.97448 0.190735 0.569209 7.99689 0.12982 38.6762 0.239667 3.1656 0.279611
37401.00 1382.15 100.138983 44.6479 0.12982 3.97448 0.190735 0.569209 7.99689 0.12982 38.6762 0.239667 3.1656 0.279611
37301.00 1381.94 100.138983 44.6479 0.12982 3.97448 0.190735 0.569209 7.99689 0.12982 38.6762 0.239667 3.1656 0.279611
37201.00 1381.73 100.138983 44.6479 0.12982 3.97448 0.190735 0.569209 7.99689 0.12982 38.6762 0.239667 3.1656 0.279611
37101.00 1381.52 100.138983 44.6479 0.12982 3.97448 0.190735 0.569209 7.99689 0.12982 38.6762 0.239667 3.1656 0.279611
37001.00 1381.30 100.138983 44.6479 0.12982 3.97448 0.190735 0.569209 7.99689 0.12982 38.6762 0.239667 3.1656 0.279611
36901.00 1381.09 100.138983 44.6479 0.12982 3.97448 0.190735 0.569209 7.99689 0.12982 38.6762 0.239667 3.1656 0.279611
36801.00 1380.88 100.138983 44.6479 0.12982 3.97448 0.190735 0.569209 7.99689 0.12982 38.6762 0.239667 3.1656 0.279611
36701.00 1380.66 100.138983 44.6479 0.12982 3.97448 0.190735 0.569209 7.99689 0.12982 38.6762 0.239667 3.1656 0.279611
36601.00 1380.45 100.138983 44.6479 0.12982 3.97448 0.190735 0.569209 7.99689 0.12982 38.6762 0.239667 3.1656 0.279611
36501.00 1380.24 100.138983 44.6479 0.12982 3.97448 0.190735 0.569209 7.99689 0.12982 38.6762 0.239667 3.1656 0.279611
36401.00 1380.02 100.138983 44.6479 0.12982 3.97448 0.190735 0.569209 7.99689 0.12982 38.6762 0.239667 3.1656 0.279611
36301.00 1379.81 100.138983 44.6479 0.12982 3.97448 0.190735 0.569209 7.99689 0.12982 38.6762 0.239667 3.1656 0.279611
36201.00 1379.60 100.138983 44.6479 0.12982 3.97448 0.190735 0.569209 7.99689 0.12982 38.6762 0.239667 3.1656 0.279611
36101.00 1379.38 100.138983 44.6479 0.12982 3.97448 0.190735 0.569209 7.99689 0.12982 38.6762 0.239667 3.1656 0.279611
36001.00 1379.17 100.138983 44.6479 0.12982 3.97448 0.190735 0.569209 7.99689 0.12982 38.6762 0.239667 3.1656 0.279611
35901.00 1378.96 100.138983 44.6479 0.12982 3.97448 0.190735 0.569209 7.99689 0.12982 38.6762 0.239667 3.1656 0.279611
35801.00 1378.74 100.138983 44.6479 0.12982 3.97448 0.190735 0.569209 7.99689 0.12982 38.6762 0.239667 3.1656 0.279611
35701.00 1378.53 100.138983 44.6479 0.12982 3.97448 0.190735 0.569209 7.99689 0.12982 38.6762 0.239667 3.1656 0.279611
35601.00 1378.31 100.138983 44.6479 0.12982 3.97448 0.190735 0.569209 7.99689 0.12982 38.6762 0.239667 3.1656 0.279611
35501.00 1378.10 100.138983 44.6479 0.12982 3.97448 0.190735 0.569209 7.99689 0.12982 38.6762 0.239667 3.1656 0.279611
35401.00 1377.88 100.138983 44.6479 0.12982 3.97448 0.190735 0.569209 7.99689 0.12982 38.6762 0.239667 3.1656 0.279611
35301.00 1377.67 100.138983 44.6479 0.12982 3.97448 0.190735 0.569209 7.99689 0.12982 38.6762 0.239667 3.1656 0.279611
35201.00 1377.46 100.138983 44.6479 0.12982 3.97448 0.190735 0.569209 7.99689 0.12982 38.6762 0.239667 3.1656 0.279611
35101.00 1377.24 100.138983 44.6479 0.12982 3.97448 0.190735 0.569209 7.99689 0.12982 38.6762 0.239667 3.1656 0.279611
35001.00 1377.03 100.138983 44.6479 0.12982 3.97448 0.190735 0.569209 7.99689 0.12982 38.6762 0.239667 3.1656 0.279611
34901.00 1376.81 100.138983 44.6479 0.12982 3.97448 0.190735 0.569209 7.99689 0.12982 38.6762 0.239667 3.1656 0.279611
34801.00 1376.60 100.138983 44.6479 0.12982 3.97448 0.190735 0.569209 7.99689 0.12982 38.6762 0.239667 3.1656 0.279611
34701.00 1376.38 100.138983 44.6479 0.12982 3.97448 0.190735 0.569209 7.99689 0.12982 38.6762 0.239667 3.1656 0.279611
34601.00 1376.17 100.138983 44.6479 0.12982 3.97448 0.190735 0.569209 7.99689 0.12982 38.6762 0.239667 3.1656 0.279611
34501.00 1375.95 100.138983 44.6479 0.12982 3.97448 0.190735 0.569209 7.99689 0.12982 38.6762 0.239667 3.1656 0.279611
34401.00 1375.73 100.138983 44.6479 0.12982 3.97448 0.190735 0.569209 7.99689 0.12982 38.6762 0.239667 3.1656 0.279611
34301.00 1375.52 100.138983 44.6479 0.12982 3.97448 0.190735 0.569209 7.99689 0.12982 38.6762 0.239667 3.1656 0.279611
34201.00 1375.30 100.138983 44.6479 0.12982 3.97448 0.190735 0.569209 7.99689 0.12982 38.6762 0.239667 3.1656 0.279611
34101.00 1375.09 100.138983 44.6479 0.12982 3.97448 0.190735 0.569209 7.99689 0.12982 38.6762 0.239667 3.1656 0.279611
34001.00 1374.87 100.138983 44.6479 0.12982 3.97448 0.190735 0.569209 7.99689 0.12982 38.6762 0.239667 3.1656 0.279611
33901.00 1374.65 100.138983 44.6479 0.12982 3.97448 0.190735 0.569209 7.99689 0.12982 38.6762 0.239667 3.1656 0.279611
33801.00 1374.44 100.138983 44.6479 0.12982 3.97448 0.190735 0.569209 7.99689 0.12982 38.6762 0.239667 3.1656 0.279611
33701.00 1374.22 100.138983 44.6479 0.12982 3.97448 0.190735 0.569209 7.99689 0.12982 38.6762 0.239667 3.1656 0.279611
33601.00 1374.00 100.138983 44.6479 0.12982 3.97448 0.190735 0.569209 7.99689 0.12982 38.6762 0.239667 3.1656 0.279611
33501.00 1373.79 100.138983 44.6479 0.12982 3.97448 0.190735 0.569209 7.99689 0.12982 38.6762 0.239667 3.1656 0.279611
33401.00 1373.57 100.138983 44.6479 0.12982 3.97448 0.190735 0.569209 7.99689 0.12982 38.6762 0.239667 3.1656 0.279611
33301.00 1373.35 100.138983 44.6479 0.12982 3.97448 0.190735 0.569209 7.99689 0.12982 38.6762 0.239667 3.1656 0.279611
33201.00 1373.14 100.138983 44.6479 0.12982 3.97448 0.190735 0.569209 7.99689 0.12982 38.6762 0.239667 3.1656 0.279611
33101.00 1372.92 100.138983 44.6479 0.12982 3.97448 0.190735 0.569209 7.99689 0.12982 38.6762 0.239667 3.1656 0.279611
33001.00 1372.70 100.138983 44.6479 0.12982 3.97448 0.190735 0.569209 7.99689 0.12982 38.6762 0.239667 3.1656 0.279611
32901.00 1372.48 100.138983 44.6479 0.12982 3.97448 0.190735 0.569209 7.99689 0.12982 38.6762 0.239667 3.1656 0.279611
32801.00 1372.26 100.138983 44.6479 0.12982 3.97448 0.190735 0.569209 7.99689 0.12982 38.6762 0.239667 3.1656 0.279611
32701.00 1372.05 100.138983 44.6479 0.12982 3.97448 0.190735 0.569209 7.99689 0.12982 38.6762 0.239667 3.1656 0.279611
32601.00 1371.83 100.138983 44.6479 0.12982 3.97448 0.190735 0.569209 7.99689 0.12982 38.6762 0.239667 3.1656 0.279611
32501.00 1371.61 100.138983 44.6479 0.12982 3.97448 0.190735 0.569209 7.99689 0.12982 38.6762 0.239667 3.1656 0.279611
32401.00 1371.39 100.138983 44.6479 0.12982 3.97448 0.190735 0.569209 7.99689 0.12982 38.6762 0.239667 3.1656 0.279611
32301.00 1371.17 100.138983 44.6479 0.12982 3.97448 0.190735 0.569209 7.99689 0.12982 38.6762 0.239667 3.1656 0.279611
32201.00 1370.95 100.138983 44.6479 0.12982 3.97448 0.190735 0.569209 7.99689 0.12982 38.6762 0.239667 3.1656 0.279611
32101.00 1370.73 100.138983 44.6479 0.12982 3.97448 0.190735 0.569209 7.99689 0.12982 38.6762 0.239667 3.1656 0.279611
32001.00 1370.51 100.138983 44.6479 0.12982 3.97448 0.190735 0.569209 7.99689 0.12982 38.6762 0.239667 3.1656 0.279611
31901.00 1370.29 100.138983 44.6479 0.12982 3.97448 0.190735 0.569209 7.99689 0.12982 38.6762 0.239667 3.1656 0.279611
31801.00 1370.07 100.138983 44.6479 0.12982 3.97448 0.190735 0.569209 7.99689 0.12982 38.6762 0.239667 3.1656 0.279611
31701.00 1369.85 100.138983 44.6479 0.12982 3.97448 0.190735 0.569209 7.99689 0.12982 38.6762 0.239667 3.1656 0.279611
31601.00 1369.63 100.138983 44.6479 0.12982 3.97448 0.190735 0.569209 7.99689 0.12982 38.6762 0.239667 3.1656 0.279611
31501.00 1369.41 100.138983 44.6479 0.12982 3.97448 0.190735 0.569209 7.99689 0.12982 38.6762 0.239667 3.1656 0.279611
31401.00 1369.19 100.138983 44.6479 0.12982 3.97448 0.190735 0.569209 7.99689 0.12982 38.6762 0.239667 3.1656 0.279611
31301.00 1368.97 100.138983 44.6479 0.12982 3.97448 0.190735 0.569209 7.99689 0.12982 38.6762 0.239667 3.1656 0.279611
31201.00 1368.75 100.138983 44.6479 0.12982 3.97448 0.190735 0.569209 7.99689 0.12982 38.6762 0.239667 3.1656 0.279611
31101.00 1368.53 100.138983 44.6479 0.12982 3.97448 0.190735 0.569209 7.99689 0.12982 38.6762 0.239667 3.1656 0.279611
31001.00 1368.31 100.138983 44.6479 0.12982 3.97448 0.190735 0.569209 7.99689 0.12982 38.6762 0.239667 3.1656 0.279611
30901.00 1368.09 100.138983 44.6479 0.12982 3.97448 0.190735 0.569209 7.99689 0.12982 38.6762 0.239667 3.1656 0.279611
30801.00 1367.86 100.138983 44.6479 0.12982 3.97448 0.190735 0.569209 7.99689 0.12982 38.6762 0.239667 3.1656 0.279611
30701.00 1367.64 100.138983 44.6479 0.12982 3.97448 0.190735 0.569209 7.99689 0.12982 38.6762 0.239667 3.1656 0.279611
30601.00 1367.42 100.138983 44.6479 0.12982 3.97448 0.190735 0.569209 7.99689 0.12982 38.6762 0.239667 3.1656 0.279611
30501.00 1367.20 100.138983 44.6479 0.12982 3.97448 0.190735 0.569209 7.99689 0.12982 38.6762 0.239667 3.1656 0.279611
30401.00 1366.97 100.138983 44.6479 0.12982 3.97448 0.190735 0.569209 7.99689 0.12982 38.6762 0.239667 3.1656 0.279611
30301.00 1366.75 100.138983 44.6479 0.12982 3.97448 0.190735 0.569209 7.99689 0.12982 38.6762 0.239667 3.1656 0.279611
30201.00 1366.53 100.138983 44.6479 0.12982 3.97448 0.190735 0.569209 7.99689 0.12982 38.6762 0.239667 3.1656 0.279611
30101.00 1366.30 100.138983 44.6479 0.12982 3.97448 0.190735 0.569209 7.99689 0.12982 38.6762 0.239667 3.1656 0.279611
30001.00 1366.08 100.138983 44.6479 0.12982 3.97448 0.190735 0.569209 7.99689 0.12982 38.6762 0.239667 3.1656 0.279611
29901.00 1365.85 100.138983 44.6479 0.12982 3.97448 0.190735 0.569209 7.99689 0.12982 38.6762 0.239667 3.1656 0.279611
29801.00 1365.63 100.138983 44.6479 0.12982 3.97448 0.190735 0.569209 7.99689 0.12982 38.6762 0.239667 3.1656 0.279611
29701.00 1365.40 100.138983 44.6479 0.12982 3.97448 0.190735 0.569209 7.99689 0.12982 38.6762 0.239667 3.1656 0.279611
29601.00 1365.18 100.138983 44.6479 0.12982 3.97448 0.190735 0.569209 7.99689 0.12982 38.6762 0.239667 3.1656 0.279611
29501.00 1364.95 100.138983 44.6479 0.12982 3.97448 0.190735 0.569209 7.99689 0.12982 38.6762 0.239667 3.1656 0.279611
29401.00 1364.73 100.138983 44.6479 0.12982 3.97448 0.190735 0.569209 7.99689 0.12982 38.6762 0.239667 3.1656 0.279611
29301.00 1364.50 100.138983 44.6479 0.12982 3.97448 0.190735 0.569209 7.99689 0.12982 38.6762 0.239667 3.1656 0.279611
29201.00 1364.27 100.138983 44.6479 0.12982 3.97448 0.190735 0.569209 7.99689 0.12982 38.6762 0.239667 3.1656 0.279611
29101.00 1364.05 100.138983 44.6479 0.12982 3.97448 0.190735 0.569209 7.99689 0.12982 38.6762 0.239667 3.1656 0.279611
29001.00 1363.82 100.138983 44.6479 0.12982 3.97448 0.190735 0.569209 7.99689 0.12982 38.6762 0.239667 3.1656 0.279611
28901.00 1363.59 100.138983 44.6479 0.12982 3.97448 0.190735 0.569209 7.99689 0.12982 38.6762 0.239667 3.1656 0.279611
28801.00 1363.37 100.138983 44.6479 0.12982 3.97448 0.190735 0.569209 7.99689 0.12982 38.6762 0.239667 3.1656 0.279611
28701.00 1363.14 100.138983 44.6479 0.12982 3.97448 0.190735 0.569209 7.99689 0.12982 38.6762 0.239667 3.1656 0.279611
28601.00 1362.91 100.138983 44.6479 0.12982 3.97448 0.190735 0.569209 7.99689 0.12982 38.6762 0.239667 3.1656 0.279611
28501.00 1362.68 100.138983 44.6479 0.12982 3.97448 0.190735 0.569209 7.99689 0.12982 38.6762 0.239667 3.1656 0.279611
28401.00 1362.45 100.138983 44.6479 0.12982 3.97448 0.190735 0.569209 7.99689 0.12982 38.6762 0.239667 3.1656 0.279611
28301.00 1362.22 100.138983 44.6479 0.12982 3.97448 0.190735 0.569209 7.99689 0.12982 38.6762 0.239667 3.1656 0.279611
28201.00 1361.99 100.138983 44.6479 0.12982 3.97448 0.190735 0.569209 7.99689 0.12982 38.6762 0.239667 3.1656 0.279611
28101.00 1361.76 100.138983 44.6479 0.12982 3.97448 0.190735 0.569209 7.99689 0.12982 38.6762 0.239667 3.1656 0.279611
28001.00 1361.53 100.138983 44.6479 0.12982 3.97448 0.190735 0.569209 7.99689 0.12982 38.6762 0.239667 3.1656 0.279611
27901.00 1361.30 100.138983 44.6479 0.12982 3.97448 0.190735 0.569209 7.99689 0.12982 38.6762 0.239667 3.1656 0.279611
27801.00 1361.07 100.138983 44.6479 0.12982 3.97448 0.190735 0.569209 7.99689 0.12982 38.6762 0.239667 3.1656 0.279611
27701.00 1360.84 100.138983 44.6479 0.12982 3.97448 0.190735 0.569209 7.99689 0.12982 38.6762 0.239667 3.1656 0.279611
27601.00 1360.60 100.138983 44.6479 0.12982 3.97448 0.190735 0.569209 7.99689 0.12982 38.6762 0.239667 3.1656 0.279611
