Title: Depleted MORB Mantle of Workmann & Hart 2005

System Thermodynamic Data:
Pressure Temperature mass F phi S H V Cp dVdP*10^6 dVdT*10^6 fO2(absolute) fO2(absolute) rhol rhos viscosity aH2O chisqr
44001.00 1396.04 100.138983 0.0000000000000000 0.000000 252.751612 -1152229.725514 30.180519 124.857085 -19.899936 1443.388225 -5.965 -5.965 0.000000 3.318001 0.000 0 0.000
43901.00 1395.83 100.138983 0.0000000000000000 0.000000 252.751612 -1152531.540386 30.182456 124.863804 -19.907022 1443.319505 -5.969 -5.969 0.000000 3.317788 0.000 0 0.000
43801.00 1395.63 100.138983 0.0000000000000000 0.000000 252.751612 -1152833.374637 30.184395 124.870523 -19.914114 1443.250951 -5.974 -5.974 0.000000 3.317575 0.000 0 0.000
43701.00 1395.42 100.138983 0.0000000000000000 0.000000 252.751612 -1153135.228289 30.186336 124.877242 -19.921212 1443.182563 -5.979 -5.979 0.000000 3.317361 0.000 0 0.000
43601.00 1395.21 100.138983 0.0000000000000000 0.000000 252.751612 -1153437.101368 30.188280 124.883962 -19.928314 1443.114344 -5.984 -5.984 0.000000 3.317148 0.000 0 0.000
43501.00 1395.00 100.138983 0.0000000000000000 0.000000 252.751612 -1153738.993897 30.190226 124.890683 -19.935422 1443.046295 -5.989 -5.989 0.000000 3.316934 0.000 0 0.000
43401.00 1394.79 100.138983 0.0000000000000000 0.000000 252.751612 -1154040.905901 30.192175 124.897404 -19.942536 1442.978416 -5.993 -5.993 0.000000 3.316720 0.000 0 0.000
43301.00 1394.58 100.138983 0.0000000000000000 0.000000 252.751612 -1154342.837403 30.194126 124.904125 -19.949655 1442.910711 -5.998 -5.998 0.000000 3.316505 0.000 0 0.000
43201.00 1394.37 100.138983 0.0000000000000000 0.000000 252.751612 -1154644.788429 30.196080 124.910847 -19.956779 1442.843179 -6.003 -6.003 0.000000 3.316291 0.000 0 0.000
43101.00 1394.16 100.138983 0.0000000000000000 0.000000 252.751612 -1154946.759003 30.198036 124.917570 -19.963909 1442.775823 -6.008 -6.008 0.000000 3.316076 0.000 0 0.000
43001.00 1393.95 100.138983 0.0000000000000000 0.000000 252.751612 -1155248.749150 30.199994 124.924294 -19.971045 1442.708644 -6.013 -6.013 0.000000 3.315861 0.000 0 0.000
42901.00 1393.74 100.138983 0.0000000000000000 0.000000 252.751612 -1155550.758896 30.201955 124.931018 -19.978186 1442.641644 -6.018 -6.018 0.000000 3.315646 0.000 0 0.000
42801.00 1393.53 100.138983 0.0000000000000000 0.000000 252.751612 -1155852.788265 30.203919 124.937743 -19.985334 1442.574825 -6.023 -6.023 0.000000 3.315430 0.000 0 0.000
42701.00 1393.32 100.138983 0.0000000000000000 0.000000 252.751612 -1156154.837283 30.205885 124.944468 -19.992487 1442.508187 -6.028 -6.028 0.000000 3.315214 0.000 0 0.000
42601.00 1393.11 100.138983 0.0000000000000000 0.000000 252.751612 -1156456.905975 30.207854 124.951195 -19.999646 1442.441733 -6.033 -6.033 0.000000 3.314998 0.000 0 0.000
42501.00 1392.91 100.138983 0.0000000000000000 0.000000 252.751612 -1156758.994368 30.209825 124.957922 -20.006810 1442.375465 -6.038 -6.038 0.000000 3.314782 0.000 0 0.000
42401.00 1392.70 100.138983 0.0000000000000000 0.000000 252.751612 -1157061.102487 30.211799 124.964650 -20.013981 1442.309383 -6.042 -6.042 0.000000 3.314565 0.000 0 0.000
42301.00 1392.49 100.138983 0.0000000000000000 0.000000 252.751612 -1157363.230359 30.213776 124.971378 -20.021158 1442.243491 -6.047 -6.047 0.000000 3.314349 0.000 0 0.000
42201.00 1392.28 100.138983 0.0000000000000000 0.000000 252.751612 -1157665.378010 30.215755 124.978108 -20.028341 1442.177788 -6.052 -6.052 0.000000 3.314131 0.000 0 0.000
42101.00 1392.07 100.138983 0.0000000000000000 0.000000 252.751612 -1157967.545466 30.217737 124.984838 -20.035530 1442.112278 -6.058 -6.058 0.000000 3.313914 0.000 0 0.000
42001.00 1391.86 100.138983 0.0000000000000000 0.000000 252.751612 -1158269.732755 30.219721 124.991570 -20.042725 1442.046962 -6.063 -6.063 0.000000 3.313696 0.000 0 0.000
41901.00 1391.65 100.138983 0.0000000000000000 0.000000 252.751612 -1158571.939903 30.221709 124.998302 -20.049926 1441.981842 -6.068 -6.068 0.000000 3.313479 0.000 0 0.000
41801.00 1391.44 100.138983 0.0000000000000000 0.000000 252.751612 -1158874.166937 30.223699 125.005036 -20.057134 1441.916919 -6.073 -6.073 0.000000 3.313260 0.000 0 0.000
41701.00 1391.23 100.138983 0.0000000000000000 0.000000 252.751612 -1159176.413885 30.225691 125.011770 -20.064348 1441.852196 -6.078 -6.078 0.000000 3.313042 0.000 0 0.000
41601.00 1391.02 100.138983 0.0000000000000000 0.000000 252.751612 -1159478.680775 30.227687 125.018505 -20.071569 1441.787675 -6.083 -6.083 0.000000 3.312823 0.000 0 0.000
41501.00 1390.81 100.138983 0.0000000000000000 0.000000 252.751612 -1159780.967633 30.229685 125.025242 -20.078796 1441.723357 -6.088 -6.088 0.000000 3.312604 0.000 0 0.000
41401.00 1390.60 100.138983 0.0000000000000000 0.000000 252.751612 -1160083.274489 30.231686 125.031979 -20.086030 1441.659244 -6.093 -6.093 0.000000 3.312385 0.000 0 0.000
41301.00 1390.39 100.138983 0.0000000000000000 0.000000 252.751612 -1160385.601370 30.233690 125.038718 -20.093270 1441.595338 -6.098 -6.098 0.000000 3.312165 0.000 0 0.000
41201.00 1390.18 100.138983 0.0000000000000000 0.000000 252.751612 -1160687.948305 30.235697 125.045458 -20.100517 1441.531642 -6.103 -6.103 0.000000 3.311946 0.000 0 0.000
41101.00 1389.97 100.138983 0.0000000000000000 0.000000 252.751612 -1160990.315322 30.237707 125.052199 -20.107771 1441.468157 -6.108 -6.108 0.000000 3.311725 0.000 0 0.000
41001.00 1389.76 100.138983 0.0000000000000000 0.000000 252.751612 -1161292.702451 30.239719 125.058942 -20.115032 1441.404885 -6.114 -6.114 0.000000 3.311505 0.000 0 0.000
40901.00 1389.55 100.138983 0.0000000000000000 0.000000 252.751612 -1161595.109720 30.241735 125.065685 -20.122299 1441.341829 -6.119 -6.119 0.000000 3.311284 0.000 0 0.000
40801.00 1389.34 100.138983 0.0000000000000000 0.000000 252.751612 -1161897.537159 30.243753 125.072430 -20.129574 1441.278991 -6.124 -6.124 0.000000 3.311063 0.000 0 0.000
40701.00 1389.13 100.138983 0.0000000000000000 0.000000 252.751612 -1162199.984797 30.245775 125.079176 -20.136855 1441.216372 -6.129 -6.129 0.000000 3.310842 0.000 0 0.000
40601.00 1388.92 100.138983 0.0000000000000000 0.000000 252.751612 -1162502.452664 30.247799 125.085924 -20.144144 1441.153976 -6.135 -6.135 0.000000 3.310620 0.000 0 0.000
40501.00 1388.71 100.138983 0.0000000000000000 0.000000 252.751612 -1162804.940791 30.249827 125.092673 -20.151440 1441.091803 -6.140 -6.140 0.000000 3.310399 0.000 0 0.000
40401.00 1388.50 100.138983 0.0000000000000000 0.000000 252.751612 -1163107.449207 30.251857 125.099424 -20.158743 1441.029857 -6.145 -6.145 0.000000 3.310176 0.000 0 0.000
40301.00 1388.29 100.138983 0.0000000000000000 0.000000 252.751612 -1163409.977943 30.253891 125.106176 -20.166054 1440.968140 -6.150 -6.150 0.000000 3.309954 0.000 0 0.000
40201.00 1388.07 100.138983 0.0000000000000000 0.000000 252.751612 -1163712.527031 30.255927 125.112930 -20.173372 1440.906654 -6.156 -6.156 0.000000 3.309731 0.000 0 0.000
40101.00 1387.86 100.138983 0.0000000000000000 0.000000 252.751612 -1164015.096500 30.257967 125.119685 -20.180697 1440.845402 -6.161 -6.161 0.000000 3.309508 0.000 0 0.000
40001.00 1387.65 100.138983 0.0000000000000000 0.000000 252.751612 -1164317.686383 30.260010 125.126442 -20.188030 1440.784385 -6.166 -6.166 0.000000 3.309285 0.000 0 0.000
39901.00 1387.44 100.138983 0.0000000000000000 0.000000 252.751612 -1164620.296710 30.262056 125.133200 -20.195371 1440.723607 -6.172 -6.172 0.000000 3.309061 0.000 0 0.000
39801.00 1387.23 100.138983 0.0000000000000000 0.000000 252.751612 -1164922.927515 30.264105 125.139960 -20.202719 1440.663070 -6.177 -6.177 0.000000 3.308837 0.000 0 0.000
39701.00 1387.02 100.138983 0.0000000000000000 0.000000 252.751612 -1165225.578828 30.266158 125.146722 -20.210075 1440.602776 -6.182 -6.182 0.000000 3.308612 0.000 0 0.000
39601.00 1386.81 100.138983 0.0000000000000000 0.000000 252.751612 -1165528.250683 30.268214 125.153486 -20.217439 1440.542729 -6.188 -6.188 0.000000 3.308388 0.000 0 0.000
39501.00 1386.60 100.138983 0.0000000000000000 0.000000 252.751612 -1165830.943112 30.270273 125.160251 -20.224811 1440.482929 -6.193 -6.193 0.000000 3.308163 0.000 0 0.000
39401.00 1386.39 100.138983 0.0000000000000000 0.000000 252.751612 -1166133.656148 30.272335 125.167019 -20.232192 1440.423381 -6.199 -6.199 0.000000 3.307937 0.000 0 0.000
39301.00 1386.18 100.138983 0.0000000000000000 0.000000 252.751612 -1166436.389825 30.274401 125.173788 -20.239580 1440.364087 -6.204 -6.204 0.000000 3.307711 0.000 0 0.000
39201.00 1385.97 100.138983 0.0000000000000000 0.000000 252.751612 -1166739.144175 30.276470 125.180560 -20.246976 1440.305050 -6.210 -6.210 0.000000 3.307485 0.000 0 0.000
39101.00 1385.76 100.138983 0.0000000000000000 0.000000 252.751612 -1167041.919233 30.278542 125.187333 -20.254381 1440.246272 -6.215 -6.215 0.000000 3.307259 0.000 0 0.000
39001.00 1385.54 100.138983 0.0000000000000000 0.000000 252.751612 -1167344.715034 30.280618 125.194108 -20.261794 1440.187756 -6.221 -6.221 0.000000 3.307032 0.000 0 0.000
38901.00 1385.33 100.138983 0.0000000000000000 0.000000 252.751612 -1167647.531611 30.282698 125.200886 -20.269216 1440.129506 -6.226 -6.226 0.000000 3.306805 0.000 0 0.000
38801.00 1385.12 100.138983 0.0000000000000000 0.000000 252.751612 -1167950.368999 30.284781 125.207666 -20.276647 1440.071524 -6.232 -6.232 0.000000 3.306578 0.000 0 0.000
38701.00 1384.91 100.138983 0.0000000000000000 0.000000 252.751612 -1168253.227235 30.286867 125.214448 -20.284086 1440.013813 -6.237 -6.237 0.000000 3.306350 0.000 0 0.000
38601.00 1384.70 100.138983 0.0000000000000000 0.000000 252.751612 -1168556.106352 30.288957 125.221232 -20.291533 1439.956376 -6.243 -6.243 0.000000 3.306122 0.000 0 0.000
38501.00 1384.49 100.138983 0.0000000000000000 0.000000 252.751612 -1168859.006387 30.291051 125.228018 -20.298990 1439.899216 -6.249 -6.249 0.000000 3.305893 0.000 0 0.000
38401.00 1384.27 100.138983 0.0000000000000000 0.000000 252.751612 -1169161.927376 30.293148 125.234807 -20.306456 1439.842336 -6.254 -6.254 0.000000 3.305664 0.000 0 0.000
38301.00 1384.06 100.138983 0.0000000000000000 0.000000 252.751612 -1169464.869355 30.295249 125.241598 -20.313931 1439.785740 -6.260 -6.260 0.000000 3.305435 0.000 0 0.000
38201.00 1383.85 100.138983 0.0000000000000000 0.000000 252.751612 -1169767.832362 30.297353 125.248392 -20.321415 1439.729431 -6.265 -6.265 0.000000 3.305206 0.000 0 0.000
38101.00 1383.64 100.138983 0.0000000000000000 0.000000 252.751612 -1170070.816433 30.299462 125.255189 -20.328908 1439.673412 -6.271 -6.271 0.000000 3.304976 0.000 0 0.000
38001.00 1383.43 100.138983 0.0000000000000000 0.000000 252.751612 -1170373.821607 30.301574 125.261988 -20.336411 1439.617686 -6.277 -6.277 0.000000 3.304745 0.000 0 0.000
37901.00 1383.22 100.138983 0.0000000000000000 0.000000 252.751612 -1170676.847921 30.303690 125.268789 -20.343923 1439.562257 -6.283 -6.283 0.000000 3.304515 0.000 0 0.000
37801.00 1383.00 100.138983 0.0000000000000000 0.000000 252.751612 -1170979.895412 30.305809 125.275593 -20.351445 1439.507129 -6.288 -6.288 0.000000 3.304283 0.000 0 0.000
37701.00 1382.79 100.138983 0.0000000000000000 0.000000 252.751612 -1171282.964121 30.307933 125.282401 -20.358976 1439.452304 -6.294 -6.294 0.000000 3.304052 0.000 0 0.000
37601.00 1382.58 100.138983 0.0000000000000000 0.000000 252.751612 -1171586.054087 30.310061 125.289210 -20.366517 1439.397787 -6.300 -6.300 0.000000 3.303820 0.000 0 0.000
37501.00 1382.37 100.138983 0.0000000000000000 0.000000 252.751612 -1171889.165347 30.312192 125.296023 -20.374069 1439.343581 -6.306 -6.306 0.000000 3.303588 0.000 0 0.000
37401.00 1382.15 100.138983 0.0000000000000000 0.000000 252.751612 -1172192.297943 30.314328 125.302839 -20.381630 1439.289689 -6.311 -6.311 0.000000 3.303355 0.000 0 0.000
37301.00 1381.94 100.138983 0.0000000000000000 0.000000 252.751612 -1172495.451915 30.316467 125.309658 -20.389202 1439.236117 -6.317 -6.317 0.000000 3.303122 0.000 0 0.000
37201.00 1381.73 100.138983 0.0000000000000000 0.000000 252.751612 -1172798.627304 30.318611 125.316480 -20.396784 1439.182866 -6.323 -6.323 0.000000 3.302888 0.000 0 0.000
37101.00 1381.52 100.138983 0.0000000000000000 0.000000 252.751612 -1173101.824150 30.320759 125.323305 -20.404376 1439.129943 -6.329 -6.329 0.000000 3.302654 0.000 0 0.000
37001.00 1381.30 100.138983 0.0000000000000000 0.000000 252.751612 -1173405.042495 30.322911 125.330133 -20.411979 1439.077349 -6.335 -6.335 0.000000 3.302420 0.000 0 0.000
36901.00 1381.09 100.138983 0.0000000000000000 0.000000 252.751612 -1173708.282381 30.325067 125.336965 -20.419592 1439.025091 -6.341 -6.341 0.000000 3.302185 0.000 0 0.000
36801.00 1380.88 100.138983 0.0000000000000000 0.000000 252.751612 -1174011.543850 30.327228 125.343800 -20.427217 1438.973171 -6.347 -6.347 0.000000 3.301950 0.000 0 0.000
36701.00 1380.66 100.138983 0.0000000000000000 0.000000 252.751612 -1174314.826946 30.329392 125.350638 -20.434852 1438.921593 -6.353 -6.353 0.000000 3.301714 0.000 0 0.000
36601.00 1380.45 100.138983 0.0000000000000000 0.000000 252.751612 -1174618.131712 30.331562 125.357480 -20.442498 1438.870363 -6.359 -6.359 0.000000 3.301478 0.000 0 0.000
36501.00 1380.24 100.138983 0.0000000000000000 0.000000 252.751612 -1174921.458191 30.333735 125.364326 -20.450156 1438.819485 -6.365 -6.365 0.000000 3.301241 0.000 0 0.000
36401.00 1380.02 100.138983 0.0000000000000000 0.000000 252.751612 -1175224.806429 30.335913 125.371175 -20.457825 1438.768963 -6.371 -6.371 0.000000 3.301004 0.000 0 0.000
36301.00 1379.81 100.138983 0.0000000000000000 0.000000 252.751612 -1175528.176469 30.338096 125.378028 -20.465505 1438.718801 -6.377 -6.377 0.000000 3.300767 0.000 0 0.000
36201.00 1379.60 100.138983 0.0000000000000000 0.000000 252.751612 -1175831.568357 30.340283 125.384885 -20.473197 1438.669005 -6.383 -6.383 0.000000 3.300529 0.000 0 0.000
36101.00 1379.38 100.138983 0.0000000000000000 0.000000 252.751612 -1176134.982139 30.342474 125.391746 -20.480901 1438.619579 -6.389 -6.389 0.000000 3.300291 0.000 0 0.000
36001.00 1379.17 100.138983 0.0000000000000000 0.000000 252.751612 -1176438.417860 30.344671 125.398611 -20.488616 1438.570527 -6.395 -6.395 0.000000 3.300052 0.000 0 0.000
35901.00 1378.96 100.138983 0.0000000000000000 0.000000 252.751612 -1176741.875569 30.346872 125.405480 -20.496344 1438.521856 -6.401 -6.401 0.000000 3.299812 0.000 0 0.000
35801.00 1378.74 100.138983 0.0000000000000000 0.000000 252.751612 -1177045.355312 30.349078 125.412353 -20.504084 1438.473569 -6.407 -6.407 0.000000 3.299573 0.000 0 0.000
35701.00 1378.53 100.138983 0.0000000000000000 0.000000 252.751612 -1177348.857138 30.351288 125.419230 -20.511837 1438.425672 -6.414 -6.414 0.000000 3.299332 0.000 0 0.000
35601.00 1378.31 100.138983 0.0000000000000000 0.000000 252.751612 -1177652.381094 30.353504 125.426112 -20.519601 1438.378171 -6.420 -6.420 0.000000 3.299091 0.000 0 0.000
35501.00 1378.10 100.138983 0.0000000000000000 0.000000 252.751612 -1177955.927230 30.355724 125.432998 -20.527379 1438.331069 -6.426 -6.426 0.000000 3.298850 0.000 0 0.000
35401.00 1377.88 100.138983 0.0000000000000000 0.000000 252.751612 -1178259.495595 30.357950 125.439889 -20.535169 1438.284374 -6.432 -6.432 0.000000 3.298608 0.000 0 0.000
35301.00 1377.67 100.138983 0.0000000000000000 0.000000 252.751612 -1178563.086241 30.360180 125.446784 -20.542973 1438.238090 -6.439 -6.439 0.000000 3.298366 0.000 0 0.000
35201.00 1377.46 100.138983 0.0000000000000000 0.000000 252.751612 -1178866.699216 30.362416 125.453684 -20.550790 1438.192223 -6.445 -6.445 0.000000 3.298123 0.000 0 0.000
35101.00 1377.24 100.138983 0.0000000000000000 0.000000 252.751612 -1179170.334574 30.364657 125.460589 -20.558620 1438.146779 -6.451 -6.451 0.000000 3.297880 0.000 0 0.000
35001.00 1377.03 100.138983 0.0000000000000000 0.000000 252.751612 -1179473.992365 30.366903 125.467499 -20.566463 1438.101764 -6.458 -6.458 0.000000 3.297636 0.000 0 0.000
34901.00 1376.81 100.138983 0.0000000000000000 0.000000 252.751612 -1179777.672643 30.369154 125.474414 -20.574321 1438.057184 -6.464 -6.464 0.000000 3.297391 0.000 0 0.000
34801.00 1376.60 100.138983 0.0000000000000000 0.000000 252.751612 -1180081.375462 30.371411 125.481334 -20.582192 1438.013044 -6.470 -6.470 0.000000 3.297146 0.000 0 0.000
34701.00 1376.38 100.138983 0.0000000000000000 0.000000 252.751612 -1180385.100874 30.373673 125.488259 -20.590077 1437.969351 -6.477 -6.477 0.000000 3.296901 0.000 0 0.000
34601.00 1376.17 100.138983 0.0000000000000000 0.000000 252.751612 -1180688.848935 30.375940 125.495190 -20.597977 1437.926112 -6.483 -6.483 0.000000 3.296655 0.000 0 0.000
34501.00 1375.95 100.138983 0.0000000000000000 0.000000 252.751612 -1180992.619700 30.378214 125.502127 -20.605891 1437.883332 -6.490 -6.490 0.000000 3.296408 0.000 0 0.000
34401.00 1375.73 100.138983 0.0000000000000000 0.000000 252.751612 -1181296.413226 30.380492 125.509068 -20.613820 1437.841020 -6.496 -6.496 0.000000 3.296161 0.000 0 0.000
34301.00 1375.52 100.138983 0.0000000000000000 0.000000 252.751612 -1181600.229569 30.382777 125.516016 -20.621763 1437.799180 -6.503 -6.503 0.000000 3.295913 0.000 0 0.000
34201.00 1375.30 100.138983 0.0000000000000000 0.000000 252.751612 -1181904.068786 30.385067 125.522970 -20.629722 1437.757821 -6.509 -6.509 0.000000 3.295664 0.000 0 0.000
34101.00 1375.09 100.138983 0.0000000000000000 0.000000 252.751612 -1182207.930936 30.387364 125.529929 -20.637696 1437.716949 -6.516 -6.516 0.000000 3.295415 0.000 0 0.000
34001.00 1374.87 100.138983 0.0000000000000000 0.000000 252.751612 -1182511.816078 30.389666 125.536895 -20.645686 1437.676572 -6.522 -6.522 0.000000 3.295166 0.000 0 0.000
33901.00 1374.65 100.138983 0.0000000000000000 0.000000 252.751612 -1182815.724273 30.391974 125.543867 -20.653691 1437.636697 -6.529 -6.529 0.000000 3.294915 0.000 0 0.000
33801.00 1374.44 100.138983 0.0000000000000000 0.000000 252.751612 -1183119.655579 30.394288 125.550845 -20.661712 1437.597331 -6.536 -6.536 0.000000 3.294665 0.000 0 0.000
33701.00 1374.22 100.138983 0.0000000000000000 0.000000 252.751612 -1183423.610060 30.396609 125.557830 -20.669750 1437.558482 -6.542 -6.542 0.000000 3.294413 0.000 0 0.000
33601.00 1374.00 100.138983 0.0000000000000000 0.000000 252.751612 -1183727.587777 30.398936 125.564821 -20.677803 1437.520158 -6.549 -6.549 0.000000 3.294161 0.000 0 0.000
33501.00 1373.79 100.138983 0.0000000000000000 0.000000 252.751612 -1184031.588794 30.401269 125.571819 -20.685874 1437.482368 -6.556 -6.556 0.000000 3.293908 0.000 0 0.000
33401.00 1373.57 100.138983 0.0000000000000000 0.000000 252.751612 -1184335.613174 30.403608 125.578825 -20.693961 1437.445118 -6.563 -6.563 0.000000 3.293655 0.000 0 0.000
33301.00 1373.35 100.138983 0.0000000000000000 0.000000 252.751612 -1184639.660982 30.405954 125.585837 -20.702066 1437.408418 -6.570 -6.570 0.000000 3.293400 0.000 0 0.000
33201.00 1373.14 100.138983 0.0000000000000000 0.000000 252.751612 -1184943.732284 30.408307 125.592856 -20.710188 1437.372276 -6.576 -6.576 0.000000 3.293146 0.000 0 0.000
33101.00 1372.92 100.138983 0.0000000000000000 0.000000 252.751612 -1185247.827148 30.410667 125.599883 -20.718327 1437.336702 -6.583 -6.583 0.000000 3.292890 0.000 0 0.000
33001.00 1372.70 100.138983 0.0000000000000000 0.000000 252.751612 -1185551.945640 30.413033 125.606918 -20.726485 1437.301703 -6.590 -6.590 0.000000 3.292634 0.000 0 0.000
32901.00 1372.48 100.138983 0.0000000000000000 0.000000 252.751612 -1185856.087829 30.415406 125.613960 -20.734660 1437.267289 -6.597 -6.597 0.000000 3.292377 0.000 0 0.000
32801.00 1372.26 100.138983 0.0000000000000000 0.000000 252.751612 -1186160.253785 30.417786 125.621010 -20.742855 1437.233469 -6.604 -6.604 0.000000 3.292119 0.000 0 0.000
