Title: Depleted MORB Mantle of Workmann & Hart 2005

System Thermodynamic Data:
Pressure Temperature mass F phi S H V Cp dVdP*10^6 dVdT*10^6 fO2(absolute) fO2(absolute) rhol rhos viscosity aH2O chisqr
44001.00 1235.94 100.138999 0.0000000000000000 0.000000 240.002554 -1172475.186647 29.934463 123.558800 -19.852797 1368.720747 -7.117 -7.117 0.000000 3.345275 0.000 0 0.000
43901.00 1235.76 100.138999 0.0000000000000000 0.000000 240.002554 -1172774.540835 29.936375 123.564575 -19.859692 1368.657652 -7.122 -7.122 0.000000 3.345061 0.000 0 0.000
43801.00 1235.59 100.138999 0.0000000000000000 0.000000 240.002554 -1173073.914148 29.938288 123.570349 -19.866590 1368.594672 -7.126 -7.126 0.000000 3.344847 0.000 0 0.000
43701.00 1235.41 100.138999 0.0000000000000000 0.000000 240.002554 -1173373.306605 29.940203 123.576123 -19.873492 1368.531810 -7.131 -7.131 0.000000 3.344633 0.000 0 0.000
43601.00 1235.23 100.138999 0.0000000000000000 0.000000 240.002554 -1173672.718222 29.942120 123.581897 -19.880398 1368.469065 -7.136 -7.136 0.000000 3.344419 0.000 0 0.000
43501.00 1235.05 100.138999 0.0000000000000000 0.000000 240.002554 -1173972.149020 29.944039 123.587670 -19.887308 1368.406438 -7.140 -7.140 0.000000 3.344205 0.000 0 0.000
43401.00 1234.87 100.138999 0.0000000000000000 0.000000 240.002554 -1174271.599016 29.945960 123.593444 -19.894222 1368.343931 -7.145 -7.145 0.000000 3.343990 0.000 0 0.000
43301.00 1234.70 100.138999 0.0000000000000000 0.000000 240.002554 -1174571.068230 29.947883 123.599217 -19.901139 1368.281544 -7.150 -7.150 0.000000 3.343776 0.000 0 0.000
43201.00 1234.52 100.138999 0.0000000000000000 0.000000 240.002554 -1174870.556679 29.949807 123.604990 -19.908061 1368.219278 -7.154 -7.154 0.000000 3.343561 0.000 0 0.000
43101.00 1234.34 100.138999 0.0000000000000000 0.000000 240.002554 -1175170.064384 29.951734 123.610762 -19.914987 1368.157134 -7.159 -7.159 0.000000 3.343346 0.000 0 0.000
43001.00 1234.16 100.138999 0.0000000000000000 0.000000 240.002554 -1175469.591362 29.953662 123.616535 -19.921916 1368.095114 -7.163 -7.163 0.000000 3.343130 0.000 0 0.000
42901.00 1233.98 100.138999 0.0000000000000000 0.000000 240.002554 -1175769.137633 29.955592 123.622307 -19.928850 1368.033218 -7.168 -7.168 0.000000 3.342915 0.000 0 0.000
42801.00 1233.80 100.138999 0.0000000000000000 0.000000 240.002554 -1176068.703217 29.957525 123.628079 -19.935788 1367.971447 -7.173 -7.173 0.000000 3.342699 0.000 0 0.000
42701.00 1233.63 100.138999 0.0000000000000000 0.000000 240.002554 -1176368.288132 29.959459 123.633851 -19.942730 1367.909802 -7.178 -7.178 0.000000 3.342484 0.000 0 0.000
42601.00 1233.45 100.138999 0.0000000000000000 0.000000 240.002554 -1176667.892398 29.961395 123.639623 -19.949676 1367.848284 -7.182 -7.182 0.000000 3.342268 0.000 0 0.000
42501.00 1233.27 100.138999 0.0000000000000000 0.000000 240.002554 -1176967.516034 29.963333 123.645395 -19.956627 1367.786894 -7.187 -7.187 0.000000 3.342051 0.000 0 0.000
42401.00 1233.09 100.138999 0.0000000000000000 0.000000 240.002554 -1177267.159061 29.965273 123.651167 -19.963582 1367.725634 -7.192 -7.192 0.000000 3.341835 0.000 0 0.000
42301.00 1232.91 100.138999 0.0000000000000000 0.000000 240.002554 -1177566.821498 29.967215 123.656939 -19.970541 1367.664504 -7.197 -7.197 0.000000 3.341618 0.000 0 0.000
42201.00 1232.73 100.138999 0.0000000000000000 0.000000 240.002554 -1177866.503365 29.969159 123.662710 -19.977504 1367.603505 -7.201 -7.201 0.000000 3.341402 0.000 0 0.000
42101.00 1232.56 100.138999 0.0000000000000000 0.000000 240.002554 -1178166.204681 29.971105 123.668482 -19.984472 1367.542639 -7.206 -7.206 0.000000 3.341185 0.000 0 0.000
42001.00 1232.38 100.138999 0.0000000000000000 0.000000 240.002554 -1178465.925468 29.973053 123.674253 -19.991444 1367.481906 -7.211 -7.211 0.000000 3.340968 0.000 0 0.000
41901.00 1232.20 100.138999 0.0000000000000000 0.000000 240.002554 -1178765.665745 29.975003 123.680025 -19.998421 1367.421308 -7.216 -7.216 0.000000 3.340750 0.000 0 0.000
41801.00 1232.02 100.138999 0.0000000000000000 0.000000 240.002554 -1179065.425533 29.976955 123.685796 -20.005402 1367.360845 -7.221 -7.221 0.000000 3.340533 0.000 0 0.000
41701.00 1231.84 100.138999 0.0000000000000000 0.000000 240.002554 -1179365.204852 29.978909 123.691568 -20.012387 1367.300520 -7.225 -7.225 0.000000 3.340315 0.000 0 0.000
41601.00 1231.66 100.138999 0.0000000000000000 0.000000 240.002554 -1179665.003724 29.980865 123.697339 -20.019378 1367.240333 -7.230 -7.230 0.000000 3.340097 0.000 0 0.000
41501.00 1231.48 100.138999 0.0000000000000000 0.000000 240.002554 -1179964.822168 29.982824 123.703111 -20.026372 1367.180285 -7.235 -7.235 0.000000 3.339879 0.000 0 0.000
41401.00 1231.31 100.138999 0.0000000000000000 0.000000 240.002554 -1180264.660205 29.984784 123.708883 -20.033372 1367.120377 -7.240 -7.240 0.000000 3.339660 0.000 0 0.000
41301.00 1231.13 100.138999 0.0000000000000000 0.000000 240.002554 -1180564.517858 29.986747 123.714654 -20.040376 1367.060611 -7.245 -7.245 0.000000 3.339442 0.000 0 0.000
41201.00 1230.95 100.138999 0.0000000000000000 0.000000 240.002554 -1180864.395146 29.988711 123.720426 -20.047385 1367.000988 -7.250 -7.250 0.000000 3.339223 0.000 0 0.000
41101.00 1230.77 100.138999 0.0000000000000000 0.000000 240.002554 -1181164.292092 29.990678 123.726198 -20.054399 1366.941509 -7.255 -7.255 0.000000 3.339004 0.000 0 0.000
41001.00 1230.59 100.138999 0.0000000000000000 0.000000 240.002554 -1181464.208716 29.992647 123.731970 -20.061418 1366.882175 -7.260 -7.260 0.000000 3.338785 0.000 0 0.000
40901.00 1230.41 100.138999 0.0000000000000000 0.000000 240.002554 -1181764.145041 29.994618 123.737743 -20.068441 1366.822988 -7.264 -7.264 0.000000 3.338566 0.000 0 0.000
40801.00 1230.23 100.138999 0.0000000000000000 0.000000 240.002554 -1182064.101088 29.996592 123.743515 -20.075470 1366.763949 -7.269 -7.269 0.000000 3.338346 0.000 0 0.000
40701.00 1230.05 100.138999 0.0000000000000000 0.000000 240.002554 -1182364.076878 29.998567 123.749288 -20.082503 1366.705059 -7.274 -7.274 0.000000 3.338126 0.000 0 0.000
40601.00 1229.88 100.138999 0.0000000000000000 0.000000 240.002554 -1182664.072435 30.000545 123.755061 -20.089542 1366.646319 -7.279 -7.279 0.000000 3.337906 0.000 0 0.000
40501.00 1229.70 100.138999 0.0000000000000000 0.000000 240.002554 -1182964.087780 30.002525 123.760834 -20.096585 1366.587731 -7.284 -7.284 0.000000 3.337686 0.000 0 0.000
40401.00 1229.52 100.138999 0.0000000000000000 0.000000 240.002554 -1183264.122936 30.004507 123.766607 -20.103634 1366.529297 -7.289 -7.289 0.000000 3.337465 0.000 0 0.000
40301.00 1229.34 100.138999 0.0000000000000000 0.000000 240.002554 -1183564.177925 30.006491 123.772381 -20.110688 1366.471017 -7.294 -7.294 0.000000 3.337245 0.000 0 0.000
40201.00 1229.16 100.138999 0.0000000000000000 0.000000 240.002554 -1183864.252769 30.008478 123.778155 -20.117747 1366.412893 -7.299 -7.299 0.000000 3.337024 0.000 0 0.000
40101.00 1228.98 100.138999 0.0000000000000000 0.000000 240.002554 -1184164.347492 30.010467 123.783929 -20.124811 1366.354927 -7.304 -7.304 0.000000 3.336802 0.000 0 0.000
40001.00 1228.80 100.138999 0.0000000000000000 0.000000 240.002554 -1184464.462116 30.012458 123.789703 -20.131881 1366.297119 -7.309 -7.309 0.000000 3.336581 0.000 0 0.000
39901.00 1228.62 100.138999 0.0000000000000000 0.000000 240.002554 -1184764.596665 30.014452 123.795478 -20.138956 1366.239472 -7.315 -7.315 0.000000 3.336359 0.000 0 0.000
39801.00 1228.45 100.138999 0.0000000000000000 0.000000 240.002554 -1185064.751162 30.016448 123.801253 -20.146036 1366.181986 -7.320 -7.320 0.000000 3.336138 0.000 0 0.000
39701.00 1228.27 100.138999 0.0000000000000000 0.000000 240.002554 -1185364.925630 30.018446 123.807029 -20.153122 1366.124664 -7.325 -7.325 0.000000 3.335915 0.000 0 0.000
39601.00 1228.09 100.138999 0.0000000000000000 0.000000 240.002554 -1185665.120094 30.020447 123.812805 -20.160214 1366.067506 -7.330 -7.330 0.000000 3.335693 0.000 0 0.000
39501.00 1227.91 100.138999 0.0000000000000000 0.000000 240.002554 -1185965.334576 30.022450 123.818582 -20.167311 1366.010515 -7.335 -7.335 0.000000 3.335471 0.000 0 0.000
39401.00 1227.73 100.138999 0.0000000000000000 0.000000 240.002554 -1186265.569100 30.024455 123.824359 -20.174413 1365.953691 -7.340 -7.340 0.000000 3.335248 0.000 0 0.000
39301.00 1227.55 100.138999 0.0000000000000000 0.000000 240.002554 -1186565.823692 30.026463 123.830136 -20.181522 1365.897037 -7.345 -7.345 0.000000 3.335025 0.000 0 0.000
39201.00 1227.37 100.138999 0.0000000000000000 0.000000 240.002554 -1186866.098375 30.028474 123.835914 -20.188636 1365.840555 -7.350 -7.350 0.000000 3.334802 0.000 0 0.000
39101.00 1227.19 100.138999 0.0000000000000000 0.000000 240.002554 -1187166.393173 30.030486 123.841693 -20.195756 1365.784244 -7.356 -7.356 0.000000 3.334578 0.000 0 0.000
39001.00 1227.01 100.138999 0.0000000000000000 0.000000 240.002554 -1187466.708112 30.032502 123.847472 -20.202882 1365.728108 -7.361 -7.361 0.000000 3.334354 0.000 0 0.000
38901.00 1226.83 100.138999 0.0000000000000000 0.000000 240.002554 -1187767.043216 30.034520 123.853252 -20.210014 1365.672149 -7.366 -7.366 0.000000 3.334130 0.000 0 0.000
38801.00 1226.65 100.138999 0.0000000000000000 0.000000 240.002554 -1188067.398511 30.036540 123.859032 -20.217151 1365.616366 -7.371 -7.371 0.000000 3.333906 0.000 0 0.000
38701.00 1226.47 100.138999 0.0000000000000000 0.000000 240.002554 -1188367.774021 30.038563 123.864813 -20.224295 1365.560764 -7.377 -7.377 0.000000 3.333681 0.000 0 0.000
38601.00 1226.29 100.138999 0.0000000000000000 0.000000 240.002554 -1188668.169772 30.040588 123.870595 -20.231445 1365.505342 -7.382 -7.382 0.000000 3.333457 0.000 0 0.000
38501.00 1226.12 100.138999 0.0000000000000000 0.000000 240.002554 -1188968.585790 30.042616 123.876377 -20.238601 1365.450104 -7.387 -7.387 0.000000 3.333232 0.000 0 0.000
38401.00 1225.94 100.138999 0.0000000000000000 0.000000 240.002554 -1189269.022100 30.044647 123.882160 -20.245764 1365.395050 -7.392 -7.392 0.000000 3.333006 0.000 0 0.000
38301.00 1225.76 100.138999 0.0000000000000000 0.000000 240.002554 -1189569.478729 30.046680 123.887944 -20.252932 1365.340183 -7.398 -7.398 0.000000 3.332781 0.000 0 0.000
38201.00 1225.58 100.138999 0.0000000000000000 0.000000 240.002554 -1189869.955702 30.048715 123.893728 -20.260107 1365.285504 -7.403 -7.403 0.000000 3.332555 0.000 0 0.000
38101.00 1225.40 100.138999 0.0000000000000000 0.000000 240.002554 -1190170.453047 30.050754 123.899514 -20.267289 1365.231016 -7.408 -7.408 0.000000 3.332329 0.000 0 0.000
38001.00 1225.22 100.138999 0.0000000000000000 0.000000 240.002554 -1190470.970790 30.052795 123.905300 -20.274477 1365.176720 -7.414 -7.414 0.000000 3.332103 0.000 0 0.000
37901.00 1225.04 100.138999 0.0000000000000000 0.000000 240.002554 -1190771.508958 30.054839 123.911087 -20.281671 1365.122619 -7.419 -7.419 0.000000 3.331876 0.000 0 0.000
37801.00 1224.86 100.138999 0.0000000000000000 0.000000 240.002554 -1191072.067577 30.056885 123.916875 -20.288872 1365.068713 -7.424 -7.424 0.000000 3.331649 0.000 0 0.000
37701.00 1224.68 100.138999 0.0000000000000000 0.000000 240.002554 -1191372.646676 30.058935 123.922664 -20.296080 1365.015006 -7.430 -7.430 0.000000 3.331422 0.000 0 0.000
37601.00 1224.50 100.138999 0.0000000000000000 0.000000 240.002554 -1191673.246282 30.060987 123.928453 -20.303295 1364.961499 -7.435 -7.435 0.000000 3.331195 0.000 0 0.000
37501.00 1224.32 100.138999 0.0000000000000000 0.000000 240.002554 -1191973.866422 30.063042 123.934244 -20.310516 1364.908195 -7.441 -7.441 0.000000 3.330967 0.000 0 0.000
37401.00 1224.14 100.138999 0.0000000000000000 0.000000 240.002554 -1192274.507126 30.065099 123.940036 -20.317744 1364.855095 -7.446 -7.446 0.000000 3.330739 0.000 0 0.000
37301.00 1223.96 100.138999 0.0000000000000000 0.000000 240.002554 -1192575.168419 30.067160 123.945829 -20.324980 1364.802201 -7.452 -7.452 0.000000 3.330511 0.000 0 0.000
37201.00 1223.78 100.138999 0.0000000000000000 0.000000 240.002554 -1192875.850333 30.069223 123.951623 -20.332222 1364.749517 -7.457 -7.457 0.000000 3.330282 0.000 0 0.000
37101.00 1223.60 100.138999 0.0000000000000000 0.000000 240.002554 -1193176.552894 30.071290 123.957418 -20.339472 1364.697043 -7.463 -7.463 0.000000 3.330053 0.000 0 0.000
37001.00 1223.42 100.138999 0.0000000000000000 0.000000 240.002554 -1193477.276133 30.073359 123.963214 -20.346728 1364.644783 -7.468 -7.468 0.000000 3.329824 0.000 0 0.000
36901.00 1223.24 100.138999 0.0000000000000000 0.000000 240.002554 -1193778.020078 30.075431 123.969012 -20.353992 1364.592738 -7.474 -7.474 0.000000 3.329595 0.000 0 0.000
36801.00 1223.06 100.138999 0.0000000000000000 0.000000 240.002554 -1194078.784759 30.077506 123.974810 -20.361264 1364.540911 -7.479 -7.479 0.000000 3.329365 0.000 0 0.000
36701.00 1222.88 100.138999 0.0000000000000000 0.000000 240.002554 -1194379.570206 30.079584 123.980610 -20.368543 1364.489304 -7.485 -7.485 0.000000 3.329135 0.000 0 0.000
36601.00 1222.70 100.138999 0.0000000000000000 0.000000 240.002554 -1194680.376448 30.081665 123.986412 -20.375829 1364.437920 -7.490 -7.490 0.000000 3.328905 0.000 0 0.000
36501.00 1222.52 100.138999 0.0000000000000000 0.000000 240.002554 -1194981.203517 30.083749 123.992214 -20.383123 1364.386761 -7.496 -7.496 0.000000 3.328674 0.000 0 0.000
36401.00 1222.34 100.138999 0.0000000000000000 0.000000 240.002554 -1195282.051441 30.085836 123.998018 -20.390425 1364.335830 -7.501 -7.501 0.000000 3.328443 0.000 0 0.000
36301.00 1222.16 100.138999 0.0000000000000000 0.000000 240.002554 -1195582.920254 30.087927 124.003824 -20.397734 1364.285128 -7.507 -7.507 0.000000 3.328212 0.000 0 0.000
36201.00 1221.98 100.138999 0.0000000000000000 0.000000 240.002554 -1195883.809985 30.090020 124.009630 -20.405052 1364.234660 -7.513 -7.513 0.000000 3.327980 0.000 0 0.000
36101.00 1221.80 100.138999 0.0000000000000000 0.000000 240.002554 -1196184.720666 30.092117 124.015439 -20.412377 1364.184426 -7.518 -7.518 0.000000 3.327749 0.000 0 0.000
36001.00 1221.62 100.138999 0.0000000000000000 0.000000 240.002554 -1196485.652328 30.094216 124.021249 -20.419711 1364.134431 -7.524 -7.524 0.000000 3.327516 0.000 0 0.000
35901.00 1221.44 100.138999 0.0000000000000000 0.000000 240.002554 -1196786.605005 30.096319 124.027060 -20.427052 1364.084676 -7.530 -7.530 0.000000 3.327284 0.000 0 0.000
35801.00 1221.26 100.138999 0.0000000000000000 0.000000 240.002554 -1197087.578727 30.098426 124.032873 -20.434402 1364.035164 -7.535 -7.535 0.000000 3.327051 0.000 0 0.000
35701.00 1221.07 100.138999 0.0000000000000000 0.000000 240.002554 -1197388.573529 30.100535 124.038688 -20.441760 1363.985899 -7.541 -7.541 0.000000 3.326818 0.000 0 0.000
35601.00 1220.89 100.138999 0.0000000000000000 0.000000 240.002554 -1197689.589441 30.102648 124.044504 -20.449127 1363.936882 -7.547 -7.547 0.000000 3.326584 0.000 0 0.000
35501.00 1220.71 100.138999 0.0000000000000000 0.000000 240.002554 -1197990.626499 30.104764 124.050323 -20.456502 1363.888118 -7.553 -7.553 0.000000 3.326351 0.000 0 0.000
35401.00 1220.53 100.138999 0.0000000000000000 0.000000 240.002554 -1198291.684736 30.106884 124.056143 -20.463886 1363.839608 -7.558 -7.558 0.000000 3.326116 0.000 0 0.000
35301.00 1220.35 100.138999 0.0000000000000000 0.000000 240.002554 -1198592.764184 30.109007 124.061965 -20.471278 1363.791357 -7.564 -7.564 0.000000 3.325882 0.000 0 0.000
35201.00 1220.17 100.138999 0.0000000000000000 0.000000 240.002554 -1198893.864880 30.111133 124.067788 -20.478680 1363.743366 -7.570 -7.570 0.000000 3.325647 0.000 0 0.000
35101.00 1219.99 100.138999 0.0000000000000000 0.000000 240.002554 -1199194.986857 30.113263 124.073614 -20.486090 1363.695639 -7.576 -7.576 0.000000 3.325412 0.000 0 0.000
35001.00 1219.81 100.138999 0.0000000000000000 0.000000 240.002554 -1199496.130150 30.115396 124.079442 -20.493509 1363.648180 -7.582 -7.582 0.000000 3.325176 0.000 0 0.000
34901.00 1219.63 100.138999 0.0000000000000000 0.000000 240.002554 -1199797.294794 30.117533 124.085272 -20.500938 1363.600991 -7.588 -7.588 0.000000 3.324940 0.000 0 0.000
34801.00 1219.45 100.138999 0.0000000000000000 0.000000 240.002554 -1200098.480826 30.119674 124.091104 -20.508375 1363.554075 -7.594 -7.594 0.000000 3.324704 0.000 0 0.000
34701.00 1219.26 100.138999 0.0000000000000000 0.000000 240.002554 -1200399.688282 30.121818 124.096938 -20.515823 1363.507437 -7.600 -7.600 0.000000 3.324467 0.000 0 0.000
34601.00 1219.08 100.138999 0.0000000000000000 0.000000 240.002554 -1200700.917197 30.123966 124.102774 -20.523279 1363.461079 -7.605 -7.605 0.000000 3.324230 0.000 0 0.000
34501.00 1218.90 100.138999 0.0000000000000000 0.000000 240.002554 -1201002.167608 30.126117 124.108613 -20.530745 1363.415005 -7.611 -7.611 0.000000 3.323993 0.000 0 0.000
34401.00 1218.72 100.138999 0.0000000000000000 0.000000 240.002554 -1201303.439554 30.128272 124.114454 -20.538221 1363.369219 -7.617 -7.617 0.000000 3.323755 0.000 0 0.000
34301.00 1218.54 100.138999 0.0000000000000000 0.000000 240.002554 -1201604.733071 30.130432 124.120298 -20.545707 1363.323724 -7.623 -7.623 0.000000 3.323517 0.000 0 0.000
34201.00 1218.36 100.138999 0.0000000000000000 0.000000 240.002554 -1201906.048197 30.132594 124.126143 -20.553203 1363.278524 -7.629 -7.629 0.000000 3.323278 0.000 0 0.000
34101.00 1218.17 100.138999 0.0000000000000000 0.000000 240.002554 -1202207.384971 30.134761 124.131992 -20.560708 1363.233622 -7.635 -7.635 0.000000 3.323039 0.000 0 0.000
34001.00 1217.99 100.138999 0.0000000000000000 0.000000 240.002554 -1202508.743431 30.136932 124.137843 -20.568224 1363.189023 -7.642 -7.642 0.000000 3.322800 0.000 0 0.000
33901.00 1217.81 100.138999 0.0000000000000000 0.000000 240.002554 -1202810.123618 30.139106 124.143697 -20.575751 1363.144729 -7.648 -7.648 0.000000 3.322560 0.000 0 0.000
33801.00 1217.63 100.138999 0.0000000000000000 0.000000 240.002554 -1203111.525570 30.141285 124.149553 -20.583287 1363.100747 -7.654 -7.654 0.000000 3.322320 0.000 0 0.000
33701.00 1217.45 100.138999 0.0000000000000000 0.000000 240.002554 -1203412.949328 30.143467 124.155412 -20.590835 1363.057078 -7.660 -7.660 0.000000 3.322080 0.000 0 0.000
33601.00 1217.26 100.138999 0.0000000000000000 0.000000 240.002554 -1203714.394933 30.145654 124.161274 -20.598393 1363.013728 -7.666 -7.666 0.000000 3.321839 0.000 0 0.000
33501.00 1217.08 100.138999 0.0000000000000000 0.000000 240.002554 -1204015.862425 30.147845 124.167139 -20.605962 1362.970701 -7.672 -7.672 0.000000 3.321597 0.000 0 0.000
33401.00 1216.90 100.138999 0.0000000000000000 0.000000 240.002554 -1204317.351846 30.150040 124.173007 -20.613542 1362.928000 -7.678 -7.678 0.000000 3.321355 0.000 0 0.000
33301.00 1216.72 100.138999 0.0000000000000000 0.000000 240.002554 -1204618.863238 30.152239 124.178878 -20.621133 1362.885632 -7.685 -7.685 0.000000 3.321113 0.000 0 0.000
33201.00 1216.54 100.138999 0.0000000000000000 0.000000 240.002554 -1204920.396644 30.154443 124.184752 -20.628736 1362.843599 -7.691 -7.691 0.000000 3.320870 0.000 0 0.000
33101.00 1216.35 100.138999 0.0000000000000000 0.000000 240.002554 -1205221.952107 30.156651 124.190630 -20.636349 1362.801906 -7.697 -7.697 0.000000 3.320627 0.000 0 0.000
33001.00 1216.17 100.138999 0.0000000000000000 0.000000 240.002554 -1205523.529670 30.158863 124.196511 -20.643975 1362.760558 -7.703 -7.703 0.000000 3.320384 0.000 0 0.000
32901.00 1215.99 100.138999 0.0000000000000000 0.000000 240.002554 -1205825.129378 30.161079 124.202395 -20.651612 1362.719561 -7.710 -7.710 0.000000 3.320140 0.000 0 0.000
32801.00 1215.80 100.138999 0.0000000000000000 0.000000 240.002554 -1206126.751274 30.163301 124.208282 -20.659261 1362.678918 -7.716 -7.716 0.000000 3.319895 0.000 0 0.000
