Title: Depleted MORB Mantle of Workmann & Hart 2005

Liquid Composition:
Pressure Temperature mass SiO2 TiO2 Al2O3 Fe2O3 Cr2O3 FeO MnO MgO NiO CaO Na2O 
44001.00 1360.68 0.000000 ---
43901.00 1360.48 0.000000 ---
43801.00 1360.27 0.000000 ---
43701.00 1360.07 0.000000 ---
43601.00 1359.87 0.000000 ---
43501.00 1359.67 0.000000 ---
43401.00 1359.47 0.000000 ---
43301.00 1359.26 0.000000 ---
43201.00 1359.06 0.000000 ---
43101.00 1358.86 0.000000 ---
43001.00 1358.66 0.000000 ---
42901.00 1358.46 0.000000 ---
42801.00 1358.25 0.000000 ---
42701.00 1358.05 0.000000 ---
42601.00 1357.85 0.000000 ---
42501.00 1357.65 0.000000 ---
42401.00 1357.44 0.000000 ---
42301.00 1357.24 0.000000 ---
42201.00 1357.04 0.000000 ---
42101.00 1356.84 0.000000 ---
42001.00 1356.64 0.000000 ---
41901.00 1356.43 0.000000 ---
41801.00 1356.23 0.000000 ---
41701.00 1356.03 0.000000 ---
41601.00 1355.83 0.000000 ---
41501.00 1355.62 0.000000 ---
41401.00 1355.42 0.000000 ---
41301.00 1355.22 0.000000 ---
41201.00 1355.01 0.000000 ---
41101.00 1354.81 0.000000 ---
41001.00 1354.61 0.000000 ---
40901.00 1354.41 0.000000 ---
40801.00 1354.20 0.000000 ---
40701.00 1354.00 0.000000 ---
40601.00 1353.80 0.000000 ---
40501.00 1353.59 0.000000 ---
40401.00 1353.39 0.000000 ---
40301.00 1353.19 0.000000 ---
40201.00 1352.99 0.000000 ---
40101.00 1352.78 0.000000 ---
40001.00 1352.58 0.000000 ---
39901.00 1352.38 0.000000 ---
39801.00 1352.17 0.000000 ---
39701.00 1351.97 0.000000 ---
39601.00 1351.77 0.000000 ---
39501.00 1351.56 0.000000 ---
39401.00 1351.36 0.000000 ---
39301.00 1351.16 0.000000 ---
39201.00 1350.95 0.000000 ---
39101.00 1350.75 0.000000 ---
39001.00 1350.54 0.000000 ---
38901.00 1350.34 0.000000 ---
38801.00 1350.14 0.000000 ---
38701.00 1349.93 0.000000 ---
38601.00 1349.73 0.000000 ---
38501.00 1349.52 0.000000 ---
38401.00 1349.32 0.000000 ---
38301.00 1349.12 0.000000 ---
38201.00 1348.91 0.000000 ---
38101.00 1348.71 0.000000 ---
38001.00 1348.50 0.000000 ---
37901.00 1348.30 0.000000 ---
37801.00 1348.09 0.000000 ---
37701.00 1347.89 0.000000 ---
37601.00 1347.69 0.000000 ---
37501.00 1347.48 0.000000 ---
37401.00 1347.28 0.000000 ---
37301.00 1347.07 0.000000 ---
37201.00 1346.87 0.000000 ---
37101.00 1346.66 0.000000 ---
37001.00 1346.46 0.000000 ---
36901.00 1346.25 0.000000 ---
36801.00 1346.05 0.000000 ---
36701.00 1345.84 0.000000 ---
36601.00 1345.64 0.000000 ---
36501.00 1345.43 0.000000 ---
36401.00 1345.22 0.000000 ---
36301.00 1345.02 0.000000 ---
36201.00 1344.81 0.000000 ---
36101.00 1344.61 0.000000 ---
36001.00 1344.40 0.000000 ---
35901.00 1344.20 0.000000 ---
35801.00 1343.99 0.000000 ---
35701.00 1343.78 0.000000 ---
35601.00 1343.58 0.000000 ---
35501.00 1343.37 0.000000 ---
35401.00 1343.16 0.000000 ---
35301.00 1342.96 0.000000 ---
35201.00 1342.75 0.000000 ---
35101.00 1342.54 0.000000 ---
35001.00 1342.34 0.000000 ---
34901.00 1342.13 0.000000 ---
34801.00 1341.92 0.000000 ---
34701.00 1341.72 0.000000 ---
34601.00 1341.51 0.000000 ---
34501.00 1341.30 0.000000 ---
34401.00 1341.09 0.000000 ---
34301.00 1340.89 0.000000 ---
34201.00 1340.68 0.000000 ---
34101.00 1340.47 0.000000 ---
34001.00 1340.26 0.000000 ---
33901.00 1340.05 0.000000 ---
33801.00 1339.85 0.000000 ---
33701.00 1339.64 0.000000 ---
33601.00 1339.43 0.000000 ---
33501.00 1339.22 0.000000 ---
33401.00 1339.01 0.000000 ---
33301.00 1338.80 0.000000 ---
33201.00 1338.59 0.000000 ---
33101.00 1338.39 0.000000 ---
33001.00 1338.18 0.000000 ---
32901.00 1337.97 0.000000 ---
32801.00 1337.76 0.000000 ---
32701.00 1337.55 0.000000 ---
32601.00 1337.34 0.000000 ---
32501.00 1337.13 0.000000 ---
32401.00 1336.92 0.000000 ---
32301.00 1336.71 0.000000 ---
32201.00 1336.50 0.000000 ---
32101.00 1336.29 0.000000 ---
32001.00 1336.08 0.000000 ---
31901.00 1335.86 0.000000 ---
31801.00 1335.65 0.000000 ---
31701.00 1335.44 0.000000 ---
31601.00 1335.23 0.000000 ---
31501.00 1335.02 0.000000 ---
31401.00 1334.81 0.000000 ---
31301.00 1334.59 0.000000 ---
31201.00 1334.38 0.000000 ---
31101.00 1334.17 0.000000 ---
31001.00 1333.96 0.000000 ---
30901.00 1333.74 0.000000 ---
30801.00 1333.53 0.000000 ---
30701.00 1333.32 0.000000 ---
30601.00 1333.10 0.000000 ---
30501.00 1332.89 0.000000 ---
30401.00 1332.68 0.000000 ---
30301.00 1332.46 0.000000 ---
30201.00 1332.25 0.000000 ---
30101.00 1332.03 0.000000 ---
30001.00 1331.82 0.000000 ---
29901.00 1331.60 0.000000 ---
29801.00 1331.39 0.000000 ---
29701.00 1331.17 0.000000 ---
29601.00 1330.96 0.000000 ---
29501.00 1330.74 0.000000 ---
29401.00 1330.53 0.000000 ---
29301.00 1330.31 0.000000 ---
29201.00 1330.09 0.000000 ---
29101.00 1329.87 0.000000 ---
29001.00 1329.66 0.000000 ---
28901.00 1329.44 0.000000 ---
28801.00 1329.22 0.000000 ---
28701.00 1329.00 0.000000 ---
28601.00 1328.79 0.000000 ---
28501.00 1328.57 0.000000 ---
28401.00 1328.35 0.000000 ---
28301.00 1328.13 0.000000 ---
28201.00 1327.91 0.000000 ---
28101.00 1327.69 0.000000 ---
28001.00 1327.47 0.000000 ---
27901.00 1327.25 0.000000 ---
27801.00 1327.03 0.000000 ---
27701.00 1326.80 0.000000 ---
27601.00 1326.58 0.000000 ---
27501.00 1326.36 0.000000 ---
27401.00 1326.14 0.000000 ---
27301.00 1325.91 0.000000 ---
27201.00 1325.69 0.000000 ---
27101.00 1325.47 0.000000 ---
27001.00 1325.24 0.000000 ---
26901.00 1325.02 0.000000 ---
26801.00 1324.79 0.000000 ---
26701.00 1324.57 0.000000 ---
26601.00 1324.34 0.000000 ---
26501.00 1324.12 0.000000 ---
26401.00 1323.89 0.000000 ---
26301.00 1323.66 0.000000 ---
26201.00 1323.44 0.000000 ---
26101.00 1323.21 0.000000 ---
26001.00 1322.98 0.000000 ---
25901.00 1322.75 0.000000 ---
25801.00 1322.52 0.000000 ---
25701.00 1322.29 0.000000 ---
25601.00 1322.06 0.000000 ---
25501.00 1321.83 0.000000 ---
25401.00 1321.60 0.000000 ---
25301.00 1321.36 0.000000 ---
25201.00 1321.13 0.000000 ---
25101.00 1320.90 0.000000 ---
25001.00 1320.66 0.000000 ---
24901.00 1320.43 0.000000 ---
24801.00 1320.19 0.000000 ---
24701.00 1319.96 0.000000 ---
24601.00 1319.72 0.000000 ---
24501.00 1319.48 0.000000 ---
24401.00 1319.24 0.000000 ---
24301.00 1319.01 0.000000 ---
24201.00 1318.77 0.000000 ---
24101.00 1318.53 0.000000 ---
24001.00 1318.28 0.000000 ---
23901.00 1318.04 0.000000 ---
23801.00 1317.80 0.000000 ---
23701.00 1317.56 0.000000 ---
23601.00 1317.31 0.000000 ---
23501.00 1317.07 0.000000 ---
23401.00 1316.82 0.000000 ---
23301.00 1316.57 0.000000 ---
23201.00 1316.33 0.000000 ---
23101.00 1316.08 0.000000 ---
23001.00 1315.83 0.000000 ---
22901.00 1315.58 0.000000 ---
22801.00 1315.32 0.000000 ---
22701.00 1315.07 0.000000 ---
22601.00 1314.82 0.000000 ---
22501.00 1314.56 0.000000 ---
22401.00 1314.30 0.000000 ---
22301.00 1314.05 0.000000 ---
22201.00 1313.79 0.000000 ---
22101.00 1313.53 0.000000 ---
22001.00 1313.26 0.000000 ---
21901.00 1313.00 0.000000 ---
21801.00 1312.74 0.000000 ---
21701.00 1312.47 0.000000 ---
21601.00 1312.20 0.000000 ---
21501.00 1311.93 0.000000 ---
21401.00 1311.66 0.000000 ---
21301.00 1311.39 0.000000 ---
21201.00 1311.12 0.000000 ---
21101.00 1310.84 0.000000 ---
21001.00 1310.56 0.000000 ---
20901.00 1310.28 0.000000 ---
20801.00 1310.00 0.000000 ---
20701.00 1309.72 0.000000 ---
20601.00 1309.43 0.000000 ---
20501.00 1309.14 0.000000 ---
20401.00 1308.85 0.000000 ---
20301.00 1308.56 0.000000 ---
20201.00 1308.26 0.000000 ---
20101.00 1307.96 0.000000 ---
20001.00 1307.66 0.000000 ---
19901.00 1307.36 0.000000 ---
19801.00 1307.05 0.000000 ---
19701.00 1306.74 0.000000 ---
19601.00 1306.43 0.000000 ---
19501.00 1306.11 0.000000 ---
19401.00 1305.79 0.000000 ---
19301.00 1305.61 0.000000 ---
19201.00 1305.42 0.000000 ---
19101.00 1305.23 0.000000 ---
19001.00 1305.04 0.000000 ---
18901.00 1304.85 0.000000 ---
18801.00 1304.67 0.000000 ---
18701.00 1304.48 0.000000 ---
18601.00 1304.29 0.000000 ---
18501.00 1304.10 0.000000 ---
18401.00 1303.91 0.000000 ---
18301.00 1303.72 0.000000 ---
18201.00 1303.54 0.000000 ---
18101.00 1303.35 0.000000 ---
18001.00 1303.16 0.000000 ---
17901.00 1302.97 0.000000 ---
17801.00 1302.78 0.000000 ---
17701.00 1302.60 0.000000 ---
17601.00 1302.41 0.000000 ---
17501.00 1302.22 0.000000 ---
17401.00 1302.03 0.000000 ---
17301.00 1301.84 0.000000 ---
17201.00 1301.66 0.000000 ---
17101.00 1301.47 0.000000 ---
17001.00 1301.28 0.000000 ---
16901.00 1301.09 0.000000 ---
16801.00 1300.90 0.000000 ---
16701.00 1300.71 0.000000 ---
16601.00 1300.53 0.000000 ---
16501.00 1300.34 0.000000 ---
16401.00 1300.15 0.000000 ---
16301.00 1299.96 0.000000 ---
16201.00 1299.77 0.000000 ---
16101.00 1299.58 0.000000 ---
16001.00 1299.40 0.000000 ---
15901.00 1299.21 0.000000 ---
15801.00 1299.02 0.000000 ---
15701.00 1298.83 0.000000 ---
15601.00 1298.64 0.000000 ---
15501.00 1298.45 0.000000 ---
15401.00 1298.27 0.000000 ---
15301.00 1298.08 0.000000 ---
15201.00 1297.89 0.000000 ---
15101.00 1297.70 0.000000 ---
15001.00 1297.51 0.000000 ---
14901.00 1297.32 0.000000 ---
14801.00 1297.13 0.000000 ---
14701.00 1296.95 0.000000 ---
14601.00 1296.76 0.000000 ---
14501.00 1296.57 0.000000 ---
14401.00 1296.38 0.000000 ---
14301.00 1296.19 0.000000 ---
14201.00 1296.00 0.000000 ---
14101.00 1295.81 0.000000 ---
14001.00 1295.63 0.000000 ---
13901.00 1295.44 0.000000 ---
13801.00 1295.25 0.000000 ---
13701.00 1295.06 0.000000 ---
13601.00 1294.87 0.001345 51.2842 0.687733 18.0574 0.0973878 0.302292 4.96324 0.0184886 9.15854 0.0103237 4.4937 10.9267
13501.00 1294.53 0.038527 51.3397 0.686732 18.0698 0.0986838 0.297881 4.95483 0.0182586 9.15667 0.0101915 4.54503 10.8222
13401.00 1294.20 0.076299 51.3947 0.685766 18.082 0.100011 0.2935 4.94661 0.01803 9.15505 0.0100602 4.59713 10.7171
13301.00 1293.86 0.114686 51.4492 0.684837 18.0938 0.101372 0.28915 4.93859 0.017803 9.15367 0.00992982 4.65001 10.6116
13201.00 1293.52 0.153709 51.5032 0.683945 18.1054 0.102765 0.284829 4.93076 0.0175774 9.15254 0.00980035 4.70369 10.5055
13101.00 1293.18 0.193392 51.5566 0.683089 18.1166 0.104194 0.280539 4.92313 0.0173534 9.15165 0.00967179 4.75817 10.399
13001.00 1292.84 0.233762 51.6095 0.68227 18.1275 0.105659 0.276281 4.9157 0.0171308 9.15102 0.00954415 4.81347 10.2919
12901.00 1292.49 0.274844 51.6619 0.681489 18.1381 0.107161 0.272053 4.90847 0.0169098 9.15063 0.00941742 4.86961 10.1843
12801.00 1292.15 0.316666 51.7136 0.680745 18.1483 0.108701 0.267857 4.90146 0.0166902 9.1505 0.00929161 4.92659 10.0763
12701.00 1291.80 0.359259 51.7647 0.68004 18.1582 0.110281 0.263692 4.89465 0.0164722 9.15062 0.00916672 4.98444 9.96771
12601.00 1291.45 0.402652 51.8152 0.679372 18.1678 0.111903 0.25956 4.88804 0.0162557 9.15099 0.00904274 5.04316 9.85865
12501.00 1291.10 0.446878 51.8651 0.678743 18.177 0.113567 0.255461 4.88166 0.0160407 9.15162 0.00891967 5.10277 9.74909
12401.00 1290.74 0.491971 51.9143 0.678153 18.1859 0.115274 0.251394 4.87548 0.0158272 9.15249 0.00879752 5.16329 9.63904
12301.00 1290.39 0.537966 51.9629 0.677602 18.1944 0.117028 0.24736 4.86952 0.0156152 9.15363 0.00867628 5.22472 9.52851
12201.00 1290.03 0.584902 52.0108 0.67709 18.2026 0.118828 0.243359 4.86378 0.0154047 9.15501 0.00855594 5.28708 9.41748
12101.00 1289.67 0.632816 52.0579 0.676617 18.2105 0.120677 0.239393 4.85826 0.0151957 9.15665 0.00843652 5.35039 9.30598
12001.00 1289.30 0.681752 52.1044 0.676184 18.2179 0.122577 0.23546 4.85295 0.0149882 9.15854 0.00831801 5.41466 9.194
11901.00 1288.93 0.731751 52.1501 0.67579 18.225 0.124528 0.231563 4.84787 0.0147822 9.16068 0.0082004 5.47989 9.08155
11801.00 1288.56 0.782861 52.1951 0.675435 18.2317 0.126533 0.2277 4.84301 0.0145777 9.16307 0.0080837 5.54611 8.96863
11701.00 1288.19 0.835130 52.2393 0.675121 18.2381 0.128594 0.223873 4.83837 0.0143747 9.16571 0.0079679 5.61332 8.85526
11601.00 1287.81 0.888608 52.2828 0.674845 18.2441 0.130712 0.220081 4.83395 0.0141733 9.16858 0.00785301 5.68155 8.74143
11501.00 1287.43 0.943349 52.3254 0.674609 18.2496 0.13289 0.216326 4.82975 0.0139733 9.17169 0.00773902 5.75079 8.62716
11401.00 1287.05 0.999409 52.3673 0.674413 18.2548 0.13513 0.212607 4.82578 0.0137748 9.17504 0.00762593 5.82106 8.51246
11301.00 1286.66 1.056848 52.4083 0.674255 18.2596 0.137433 0.208925 4.82203 0.0135779 9.17862 0.00751374 5.89237 8.39734
11201.00 1286.27 1.058938 52.4484 0.674147 18.2641 0.139803 0.205267 4.81858 0.0133825 9.18253 0.00740247 5.96487 8.28159
11101.00 1285.88 1.059015 52.4874 0.67409 18.2681 0.142243 0.201633 4.81546 0.0131886 9.1868 0.00729214 6.0386 8.16521
11001.00 1285.49 1.059108 52.5254 0.674084 18.2717 0.144755 0.198021 4.81267 0.0129962 9.1914 0.00718273 6.11358 8.0482
10901.00 1285.10 1.059217 52.5624 0.674131 18.2749 0.147343 0.194434 4.81021 0.0128053 9.19636 0.00707424 6.18983 7.93055
10801.00 1284.70 1.059344 52.5983 0.674231 18.2776 0.150008 0.190872 4.80808 0.012616 9.20167 0.00696667 6.26737 7.81228
10701.00 1284.30 1.059489 52.633 0.674385 18.28 0.152755 0.187334 4.8063 0.0124282 9.20732 0.00686002 6.34623 7.69337
10601.00 1283.90 1.059654 52.6666 0.674595 18.2819 0.155585 0.183821 4.80486 0.0122419 9.21332 0.00675428 6.42642 7.57383
10501.00 1283.50 1.059839 52.6991 0.674861 18.2834 0.158502 0.180334 4.80378 0.0120572 9.21967 0.00664946 6.50798 7.45366
10401.00 1283.10 1.060046 52.7303 0.675183 18.2845 0.16151 0.176872 4.80305 0.0118739 9.22636 0.00654554 6.59093 7.33287
10301.00 1282.69 1.060277 52.7604 0.675564 18.2851 0.164612 0.173437 4.80268 0.0116921 9.2334 0.00644253 6.67529 7.21145
10201.00 1282.28 1.060531 52.7891 0.676003 18.2852 0.167811 0.170029 4.80268 0.0115119 9.24078 0.00634042 6.76108 7.08942
10101.00 1281.87 1.060811 52.8166 0.676501 18.2849 0.171111 0.166648 4.80305 0.0113331 9.2485 0.00623921 6.84833 6.96677
10001.00 1281.45 1.061118 52.8428 0.67706 18.2841 0.174516 0.163295 4.80379 0.0111559 9.25655 0.0061389 6.93705 6.84352
9901.00 1281.03 1.061454 52.8677 0.677679 18.2828 0.17803 0.15997 4.8049 0.0109801 9.26493 0.00603948 7.02727 6.71967
9801.00 1280.61 1.061820 52.8912 0.67836 18.2811 0.181656 0.156674 4.8064 0.0108058 9.27364 0.00594095 7.11901 6.59523
9701.00 1280.19 1.062218 52.9133 0.679103 18.2789 0.1854 0.153408 4.80827 0.010633 9.28266 0.00584332 7.21228 6.47021
9601.00 1279.76 1.062650 52.934 0.679908 18.2761 0.189264 0.150171 4.81053 0.0104617 9.29198 0.00574656 7.30712 6.34463
9501.00 1279.34 1.063119 52.9533 0.680776 18.2729 0.193254 0.146964 4.81318 0.0102919 9.30161 0.00565069 7.40352 6.21849
9401.00 1278.90 1.063625 52.9712 0.681707 18.2692 0.197373 0.143789 4.81621 0.0101235 9.31152 0.0055557 7.50152 6.09181
9301.00 1278.47 1.064172 52.9876 0.682702 18.265 0.201628 0.140645 4.81963 0.00995663 9.3217 0.00546159 7.60112 5.96461
9201.00 1278.02 1.064762 53.0025 0.68376 18.2602 0.206021 0.137534 4.82343 0.00979121 9.33215 0.00536835 7.70233 5.8369
9101.00 1277.58 1.065397 53.0159 0.684881 18.255 0.210558 0.134455 4.82761 0.00962727 9.34285 0.00527598 7.80517 5.70871
9001.00 1277.13 1.066081 53.0277 0.686065 18.2492 0.215244 0.131411 4.83218 0.00946479 9.35378 0.00518448 7.90965 5.58006
8901.00 1276.68 1.066816 53.0381 0.687312 18.2429 0.220083 0.128401 4.83712 0.00930377 9.36492 0.00509385 8.01577 5.45098
8801.00 1276.22 1.067606 53.0469 0.688621 18.2361 0.225081 0.125425 4.84243 0.00914422 9.37626 0.00500409 8.12354 5.32149
8701.00 1275.76 1.068454 53.0542 0.68999 18.2287 0.230242 0.122486 4.84811 0.00898613 9.38777 0.0049152 8.23294 5.19162
8601.00 1275.29 1.069365 53.0599 0.691418 18.2209 0.235571 0.119584 4.85415 0.0088295 9.39942 0.00482716 8.34399 5.06141
8501.00 1274.82 1.070340 53.0641 0.692905 18.2125 0.241072 0.11672 4.86053 0.00867433 9.4112 0.00473999 8.45668 4.93089
8401.00 1274.34 1.071387 53.0668 0.694447 18.2035 0.246752 0.113893 4.86725 0.00852063 9.42307 0.00465368 8.57099 4.80011
8301.00 1273.86 1.072507 53.0679 0.696043 18.1941 0.252613 0.111107 4.87429 0.00836839 9.435 0.00456824 8.68691 4.66911
8201.00 1273.37 1.073708 53.0675 0.697691 18.1841 0.25866 0.108361 4.88164 0.00821761 9.44697 0.00448365 8.80441 4.53792
8101.00 1272.88 1.074994 53.0657 0.699385 18.1736 0.264899 0.105656 4.88928 0.00806831 9.45893 0.00439993 8.92348 4.40661
8001.00 1272.37 1.076371 53.0624 0.701124 18.1626 0.271332 0.102993 4.8972 0.00792048 9.47085 0.00431707 9.04408 4.27523
7901.00 1271.86 1.077844 53.0576 0.702903 18.1511 0.277963 0.100374 4.90536 0.00777412 9.48269 0.00423507 9.16618 4.14384
7801.00 1271.35 1.079422 53.0515 0.704716 18.139 0.284796 0.0977995 4.91374 0.00762925 9.49441 0.00415394 9.28974 4.01249
7701.00 1270.82 1.081111 53.0441 0.706558 18.1265 0.291833 0.0952704 4.92232 0.00748587 9.50595 0.00407368 9.41469 3.88126
7601.00 1270.29 1.082918 53.0353 0.708423 18.1135 0.299076 0.0927879 4.93106 0.00734399 9.51728 0.00399429 9.541 3.75022
7501.00 1269.75 1.084852 53.0254 0.710303 18.1 0.306527 0.0903533 4.93993 0.00720361 9.52833 0.00391578 9.66858 3.61945
7401.00 1269.20 1.086923 53.0143 0.71219 18.086 0.314188 0.0879677 4.9489 0.00706475 9.53907 0.00383815 9.79738 3.48901
7301.00 1268.64 1.089140 53.0022 0.714076 18.0717 0.322057 0.0856322 4.95791 0.00692743 9.54943 0.0037614 9.9273 3.35901
7201.00 1268.07 1.091514 52.9892 0.715949 18.0568 0.330135 0.0833482 4.96693 0.00679164 9.55935 0.00368554 10.0583 3.22953
7101.00 1267.49 1.094055 52.9753 0.717799 18.0416 0.33842 0.0811168 4.9759 0.00665741 9.56877 0.00361058 10.1902 3.10067
7001.00 1266.90 1.096777 52.9607 0.719613 18.0259 0.346908 0.0789394 4.98477 0.00652476 9.57764 0.00353652 10.3229 2.97253
6901.00 1266.29 1.099692 52.9456 0.721376 18.0099 0.355597 0.0768172 4.99349 0.0063937 9.58587 0.00346338 10.4563 2.84522
6801.00 1265.68 1.102816 52.93 0.723074 17.9935 0.36448 0.0747516 5.00198 0.00626425 9.59341 0.00339116 10.5903 2.71884
6701.00 1265.05 1.106163 52.9141 0.72469 17.9768 0.373552 0.0727439 5.01019 0.00613643 9.60019 0.00331987 10.7247 2.59352
6601.00 1264.40 1.109749 52.8981 0.726205 17.9598 0.382803 0.0707955 5.01804 0.00601028 9.60613 0.00324953 10.8594 2.46939
6501.00 1263.74 1.113593 52.8823 0.727598 17.9425 0.392224 0.0689078 5.02545 0.0058858 9.61117 0.00318014 10.9943 2.34656
6401.00 1263.07 1.117713 52.8668 0.728848 17.9249 0.401803 0.0670823 5.03234 0.00576304 9.61521 0.00311173 11.129 2.22518
6301.00 1262.37 1.122129 52.8518 0.729929 17.9071 0.411527 0.0653204 5.03862 0.00564202 9.6182 0.00304429 11.2634 2.1054
6201.00 1261.66 1.126861 52.8377 0.730816 17.889 0.421381 0.0636239 5.0442 0.00552278 9.62005 0.00297786 11.3974 1.98734
6101.00 1260.93 1.131932 52.8246 0.731481 17.8708 0.431346 0.0619941 5.04899 0.00540534 9.62068 0.00291244 11.5307 1.87118
6001.00 1260.18 1.137364 52.8129 0.731891 17.8523 0.441404 0.0604329 5.05287 0.00528976 9.62002 0.00284806 11.663 1.75708
5901.00 1259.40 1.143178 52.8028 0.732015 17.8338 0.451532 0.058942 5.05575 0.00517608 9.61799 0.00278474 11.794 1.6452
5801.00 1258.60 1.149398 52.7948 0.731816 17.815 0.461705 0.0575233 5.05749 0.00506433 9.61451 0.0027225 11.9236 1.53571
5701.00 1257.78 1.156044 52.7891 0.731257 17.7962 0.471899 0.0561787 5.058 0.00495457 9.6095 0.00266137 12.0514 1.42881
5601.00 1256.93 1.163135 52.7862 0.730298 17.7772 0.482082 0.0549102 5.05714 0.00484686 9.60289 0.00260136 12.1772 1.32467
5501.00 1256.05 1.170687 52.7864 0.728896 17.7582 0.492225 0.0537203 5.05479 0.00474125 9.5946 0.00254252 12.3004 1.22351
5401.00 1255.14 1.178708 52.7901 0.727008 17.739 0.502294 0.052611 5.05082 0.0046378 9.58456 0.00248486 12.421 1.12551
5301.00 1254.20 1.187203 52.7979 0.724588 17.7197 0.512254 0.0515851 5.0451 0.00453659 9.5727 0.00242844 12.5383 1.03088
5201.00 1253.23 1.196161 52.8102 0.721591 17.7002 0.522068 0.0506451 5.03749 0.00443769 9.55896 0.00237327 12.6522 0.939849
