Title: Depleted MORB Mantle of Workmann & Hart 2005

Liquid Composition:
Pressure Temperature mass SiO2 TiO2 Al2O3 Fe2O3 Cr2O3 FeO MnO MgO NiO CaO Na2O 
44001.00 1483.48 0.000000 ---
43901.00 1483.26 0.000000 ---
43801.00 1483.03 0.000000 ---
43701.00 1482.80 0.000000 ---
43601.00 1482.57 0.000000 ---
43501.00 1482.34 0.000000 ---
43401.00 1482.11 0.000000 ---
43301.00 1481.89 0.000000 ---
43201.00 1481.66 0.000000 ---
43101.00 1481.43 0.000000 ---
43001.00 1481.20 0.000000 ---
42901.00 1480.97 0.000000 ---
42801.00 1480.74 0.000000 ---
42701.00 1480.51 0.000000 ---
42601.00 1480.29 0.000000 ---
42501.00 1480.06 0.000000 ---
42401.00 1479.83 0.000000 ---
42301.00 1479.60 0.000000 ---
42201.00 1479.37 0.000000 ---
42101.00 1479.14 0.000000 ---
42001.00 1478.91 0.000000 ---
41901.00 1478.68 0.000000 ---
41801.00 1478.45 0.000000 ---
41701.00 1478.22 0.000000 ---
41601.00 1478.00 0.000000 ---
41501.00 1477.77 0.000000 ---
41401.00 1477.54 0.000000 ---
41301.00 1477.31 0.000000 ---
41201.00 1477.08 0.000000 ---
41101.00 1476.85 0.000000 ---
41001.00 1476.62 0.000000 ---
40901.00 1476.39 0.000000 ---
40801.00 1476.16 0.000000 ---
40701.00 1475.93 0.000000 ---
40601.00 1475.70 0.000000 ---
40501.00 1475.47 0.000000 ---
40401.00 1475.24 0.000000 ---
40301.00 1475.01 0.000000 ---
40201.00 1474.78 0.000000 ---
40101.00 1474.55 0.000000 ---
40001.00 1474.32 0.000000 ---
39901.00 1474.08 0.000000 ---
39801.00 1473.85 0.000000 ---
39701.00 1473.62 0.000000 ---
39601.00 1473.39 0.000000 ---
39501.00 1473.16 0.000000 ---
39401.00 1472.93 0.000000 ---
39301.00 1472.70 0.000000 ---
39201.00 1472.47 0.000000 ---
39101.00 1472.24 0.000000 ---
39001.00 1472.00 0.000000 ---
38901.00 1471.77 0.000000 ---
38801.00 1471.54 0.000000 ---
38701.00 1471.31 0.000000 ---
38601.00 1471.08 0.000000 ---
38501.00 1470.85 0.000000 ---
38401.00 1470.61 0.000000 ---
38301.00 1470.38 0.000000 ---
38201.00 1470.15 0.000000 ---
38101.00 1469.92 0.000000 ---
38001.00 1469.68 0.000000 ---
37901.00 1469.45 0.000000 ---
37801.00 1469.22 0.000000 ---
37701.00 1468.99 0.000000 ---
37601.00 1468.75 0.000000 ---
37501.00 1468.52 0.000000 ---
37401.00 1468.29 0.000000 ---
37301.00 1468.05 0.000000 ---
37201.00 1467.82 0.000000 ---
37101.00 1467.58 0.000000 ---
37001.00 1467.35 0.000000 ---
36901.00 1467.12 0.000000 ---
36801.00 1466.88 0.000000 ---
36701.00 1466.65 0.000000 ---
36601.00 1466.41 0.000000 ---
36501.00 1466.18 0.000000 ---
36401.00 1465.94 0.000000 ---
36301.00 1465.71 0.000000 ---
36201.00 1465.48 0.000000 ---
36101.00 1465.24 0.000000 ---
36001.00 1465.00 0.000000 ---
35901.00 1464.77 0.000000 ---
35801.00 1464.53 0.000000 ---
35701.00 1464.30 0.000000 ---
35601.00 1464.06 0.000000 ---
35501.00 1463.83 0.000000 ---
35401.00 1463.59 0.000000 ---
35301.00 1463.35 0.000000 ---
35201.00 1463.12 0.000000 ---
35101.00 1462.88 0.000000 ---
35001.00 1462.64 0.000000 ---
34901.00 1462.41 0.000000 ---
34801.00 1462.17 0.000000 ---
34701.00 1461.93 0.000000 ---
34601.00 1461.69 0.000000 ---
34501.00 1461.45 0.000000 ---
34401.00 1461.22 0.000000 ---
34301.00 1460.98 0.000000 ---
34201.00 1460.74 0.000000 ---
34101.00 1460.50 0.000000 ---
34001.00 1460.26 0.000000 ---
33901.00 1460.02 0.000000 ---
33801.00 1459.78 0.000000 ---
33701.00 1459.54 0.000000 ---
33601.00 1459.30 0.000000 ---
33501.00 1459.06 0.000000 ---
33401.00 1458.82 0.000000 ---
33301.00 1458.58 0.000000 ---
33201.00 1458.34 0.000000 ---
33101.00 1458.10 0.000000 ---
33001.00 1457.86 0.000000 ---
32901.00 1457.62 0.000000 ---
32801.00 1457.38 0.000000 ---
32701.00 1457.13 0.000000 ---
32601.00 1456.89 0.000000 ---
32501.00 1456.65 0.000000 ---
32401.00 1456.41 0.000000 ---
32301.00 1456.16 0.000000 ---
32201.00 1455.92 0.000000 ---
32101.00 1455.68 0.000000 ---
32001.00 1455.43 0.000000 ---
31901.00 1455.19 0.000000 ---
31801.00 1454.94 0.000000 ---
31701.00 1454.70 0.000000 ---
31601.00 1454.45 0.000000 ---
31501.00 1454.21 0.000000 ---
31401.00 1453.96 0.000000 ---
31301.00 1453.72 0.000000 ---
31201.00 1453.47 0.000000 ---
31101.00 1453.22 0.000000 ---
31001.00 1452.97 0.000000 ---
30901.00 1452.73 0.000000 ---
30801.00 1452.48 0.000000 ---
30701.00 1452.23 0.000000 ---
30601.00 1451.98 0.000000 ---
30501.00 1451.73 0.000000 ---
30401.00 1451.48 0.000000 ---
30301.00 1451.23 0.000000 ---
30201.00 1450.98 0.000000 ---
30101.00 1450.73 0.000000 ---
30001.00 1450.48 0.000000 ---
29901.00 1450.23 0.000000 ---
29801.00 1449.98 0.000000 ---
29701.00 1449.73 0.000000 ---
29601.00 1449.47 0.000000 ---
29501.00 1449.22 0.000000 ---
29401.00 1448.97 0.000000 ---
29301.00 1448.71 0.000000 ---
29201.00 1448.46 0.000000 ---
29101.00 1448.20 0.000000 ---
29001.00 1447.95 0.000000 ---
28901.00 1447.69 0.000000 ---
28801.00 1447.43 0.000000 ---
28701.00 1447.18 0.000000 ---
28601.00 1446.92 0.000000 ---
28501.00 1446.66 0.000000 ---
28401.00 1446.40 0.000000 ---
28301.00 1446.14 0.000000 ---
28201.00 1445.88 0.000000 ---
28101.00 1445.62 0.000000 ---
28001.00 1445.36 0.000000 ---
27901.00 1445.10 0.000000 ---
27801.00 1444.83 0.000000 ---
27701.00 1444.57 0.000000 ---
27601.00 1444.31 0.000000 ---
27501.00 1444.04 0.000000 ---
27401.00 1443.78 0.000000 ---
27301.00 1443.51 0.000000 ---
27201.00 1443.24 0.000000 ---
27101.00 1442.98 0.000000 ---
27001.00 1442.71 0.000000 ---
26901.00 1442.44 0.000000 ---
26801.00 1442.17 0.000000 ---
26701.00 1441.90 0.000000 ---
26601.00 1441.63 0.000000 ---
26501.00 1441.36 0.000000 ---
26401.00 1441.08 0.000000 ---
26301.00 1440.81 0.000000 ---
26201.00 1440.53 0.000000 ---
26101.00 1440.26 0.000000 ---
26001.00 1439.98 0.000000 ---
25901.00 1439.70 0.000000 ---
25801.00 1439.42 0.000000 ---
25701.00 1439.14 0.000000 ---
25601.00 1438.86 0.000000 ---
25501.00 1438.58 0.000000 ---
25401.00 1438.30 0.000000 ---
25301.00 1438.01 0.000000 ---
25201.00 1437.72 0.000000 ---
25101.00 1437.44 0.000000 ---
25001.00 1437.15 0.000000 ---
24901.00 1436.86 0.000000 ---
24801.00 1436.57 0.000000 ---
24701.00 1436.28 0.000000 ---
24601.00 1435.98 0.000000 ---
24501.00 1435.69 0.000000 ---
24401.00 1435.39 0.000000 ---
24301.00 1435.09 0.000000 ---
24201.00 1434.79 0.000000 ---
24101.00 1434.49 0.000000 ---
24001.00 1434.19 0.000000 ---
23901.00 1433.88 0.000000 ---
23801.00 1433.58 0.000000 ---
23701.00 1433.27 0.000000 ---
23601.00 1432.96 0.000000 ---
23501.00 1432.64 0.000000 ---
23401.00 1432.33 0.000000 ---
23301.00 1432.01 0.000000 ---
23201.00 1431.69 0.000000 ---
23101.00 1431.37 0.000000 ---
23001.00 1431.05 0.000000 ---
22901.00 1430.72 0.000000 ---
22801.00 1430.40 0.000000 ---
22701.00 1430.06 0.000000 ---
22601.00 1429.73 0.000000 ---
22501.00 1429.39 0.000000 ---
22401.00 1429.05 0.000000 ---
22301.00 1428.71 0.000000 ---
22201.00 1428.37 0.000000 ---
22101.00 1428.02 0.000000 ---
22001.00 1427.67 0.000000 ---
21901.00 1427.31 0.000000 ---
21801.00 1426.96 0.000000 ---
21701.00 1426.74 0.000000 ---
21601.00 1426.51 0.000000 ---
21501.00 1426.22 0.016313 44.1866 0.900693 14.0927 0.205179 0.256891 9.83497 0.0416933 16.0388 0.0253774 5.75229 8.66485
21401.00 1425.86 0.048481 44.2246 0.900181 14.1149 0.2068 0.254988 9.81416 0.0413417 16.0217 0.0251561 5.79162 8.60452
21301.00 1425.50 0.081094 44.2627 0.899663 14.137 0.208444 0.253081 9.7934 0.040991 16.0046 0.0249355 5.83131 8.54388
21201.00 1425.14 0.114166 44.3007 0.89914 14.1589 0.210111 0.251169 9.77271 0.0406413 15.9876 0.0247155 5.87135 8.48292
21101.00 1424.78 0.147708 44.3388 0.898612 14.1807 0.211803 0.249254 9.75207 0.0402926 15.9706 0.0244963 5.91174 8.42164
21001.00 1424.41 0.181733 44.3769 0.898078 14.2023 0.21352 0.247336 9.73149 0.0399449 15.9536 0.0242778 5.95249 8.36005
20901.00 1424.04 0.216255 44.4151 0.897537 14.2238 0.215261 0.245414 9.71096 0.0395982 15.9366 0.02406 5.99361 8.29816
20801.00 1423.67 0.251287 44.4532 0.896991 14.2451 0.217028 0.24349 9.69049 0.0392526 15.9196 0.023843 6.03509 8.23596
20701.00 1423.30 0.286844 44.4914 0.896438 14.2662 0.21882 0.241563 9.67008 0.038908 15.9026 0.0236266 6.07693 8.17346
20601.00 1422.93 0.322940 44.5295 0.895878 14.2872 0.220638 0.239634 9.64972 0.0385645 15.8856 0.023411 6.11915 8.11067
20501.00 1422.56 0.359591 44.5677 0.895311 14.308 0.222482 0.237704 9.6294 0.0382221 15.8687 0.0231962 6.16173 8.04759
20401.00 1422.18 0.396811 44.6059 0.894736 14.3287 0.224352 0.235772 9.60914 0.0378807 15.8517 0.0229821 6.20468 7.98423
20301.00 1421.80 0.434617 44.644 0.894154 14.3491 0.22625 0.233839 9.58893 0.0375405 15.8348 0.0227688 6.248 7.92058
20201.00 1421.43 0.473025 44.6822 0.893563 14.3695 0.228174 0.231906 9.56876 0.0372014 15.8178 0.0225562 6.2917 7.85666
20101.00 1421.04 0.512052 44.7203 0.892963 14.3897 0.230126 0.229972 9.54864 0.0368634 15.8008 0.0223444 6.33577 7.79246
20001.00 1420.66 0.551716 44.7585 0.892354 14.4097 0.232106 0.228039 9.52856 0.0365265 15.7839 0.0221334 6.38022 7.72801
19901.00 1420.27 0.592036 44.7967 0.891736 14.4295 0.234113 0.226107 9.50853 0.0361908 15.7669 0.0219232 6.42505 7.66329
19801.00 1419.89 0.633029 44.8348 0.891107 14.4492 0.236149 0.224175 9.48853 0.0358563 15.7499 0.0217138 6.47026 7.59833
19701.00 1419.50 0.674715 44.8729 0.890468 14.4687 0.238214 0.222244 9.46856 0.035523 15.7329 0.0215052 6.51585 7.53311
19601.00 1419.11 0.717115 44.9111 0.889818 14.4881 0.240308 0.220316 9.44864 0.0351908 15.7158 0.0212974 6.56182 7.46766
19501.00 1418.71 0.760247 44.9492 0.889156 14.5073 0.24243 0.218389 9.42874 0.0348599 15.6988 0.0210904 6.60817 7.40197
19401.00 1418.31 0.804135 44.9873 0.888482 14.5263 0.244582 0.216465 9.40887 0.0345301 15.6817 0.0208843 6.6549 7.33606
19301.00 1417.91 0.848799 45.0253 0.887795 14.5452 0.246763 0.214545 9.38903 0.0342017 15.6646 0.020679 6.70201 7.26992
19201.00 1417.51 0.894262 45.0634 0.887095 14.5639 0.248975 0.212627 9.36922 0.0338744 15.6474 0.0204745 6.74951 7.20358
19101.00 1417.11 0.940548 45.1015 0.88638 14.5824 0.251216 0.210713 9.34942 0.0335484 15.6302 0.0202709 6.79738 7.13703
19001.00 1416.70 0.987679 45.1395 0.885651 14.6007 0.253487 0.208804 9.32964 0.0332237 15.613 0.0200681 6.84564 7.07028
18901.00 1416.29 1.035682 45.1775 0.884905 14.619 0.255789 0.206899 9.30988 0.0329003 15.5957 0.0198662 6.89429 7.00334
18801.00 1415.88 1.049624 45.2155 0.884154 14.637 0.258126 0.204993 9.2902 0.0325781 15.5784 0.0196652 6.94338 6.9361
18701.00 1415.47 1.049595 45.2533 0.8834 14.6548 0.2605 0.203083 9.27063 0.0322572 15.5611 0.019465 6.99294 6.86852
18601.00 1415.05 1.049570 45.2909 0.882643 14.6724 0.262913 0.20117 9.25118 0.0319375 15.544 0.0192657 7.04299 6.80058
18501.00 1414.64 1.049550 45.3284 0.881883 14.6899 0.265364 0.199254 9.23184 0.031619 15.5268 0.0190673 7.09353 6.7323
18401.00 1414.22 1.049535 45.3658 0.881121 14.7071 0.267854 0.197335 9.21262 0.0313018 15.5097 0.0188697 7.14456 6.66369
18301.00 1413.80 1.049526 45.403 0.880354 14.7242 0.270384 0.195414 9.19352 0.0309859 15.4927 0.018673 7.19608 6.59473
18201.00 1413.38 1.049522 45.44 0.879585 14.7411 0.272955 0.19349 9.17453 0.0306713 15.4757 0.0184771 7.24811 6.52545
18101.00 1412.96 1.049523 45.4769 0.878812 14.7577 0.275567 0.191565 9.15565 0.030358 15.4587 0.0182822 7.30063 6.45583
18001.00 1412.53 1.049531 45.5136 0.878034 14.7742 0.278221 0.189639 9.13689 0.030046 15.4418 0.0180881 7.35366 6.38589
17901.00 1412.11 1.049545 45.5501 0.877253 14.7905 0.280917 0.187711 9.11824 0.0297353 15.4249 0.017895 7.40721 6.31563
17801.00 1411.68 1.049565 45.5864 0.876466 14.8065 0.283656 0.185783 9.0997 0.029426 15.408 0.0177028 7.46126 6.24505
17701.00 1411.25 1.049592 45.6226 0.875675 14.8224 0.286439 0.183854 9.08128 0.0291179 15.3911 0.0175115 7.51584 6.17417
17601.00 1410.82 1.049626 45.6586 0.874879 14.8381 0.289266 0.181925 9.06297 0.0288113 15.3743 0.0173211 7.57093 6.10297
17501.00 1410.38 1.049668 45.6943 0.874077 14.8535 0.292138 0.179997 9.04476 0.028506 15.3575 0.0171316 7.62655 6.03148
17401.00 1409.95 1.049716 45.7299 0.873269 14.8688 0.295055 0.178069 9.02667 0.0282021 15.3407 0.016943 7.6827 5.95969
17301.00 1409.51 1.049773 45.7652 0.872454 14.8839 0.298019 0.176143 9.00869 0.0278995 15.324 0.0167554 7.73938 5.88761
17201.00 1409.07 1.049837 45.8004 0.871633 14.8987 0.301029 0.174218 8.99081 0.0275984 15.3072 0.0165688 7.79659 5.81525
17101.00 1408.63 1.049910 45.8353 0.870803 14.9134 0.304086 0.172294 8.97304 0.0272987 15.2904 0.016383 7.85434 5.7426
17001.00 1408.19 1.049992 45.8701 0.869966 14.9278 0.307191 0.170373 8.95537 0.0270004 15.2737 0.0161983 7.91263 5.66969
16901.00 1407.74 1.050083 45.9046 0.86912 14.9421 0.310344 0.168455 8.9378 0.0267035 15.2569 0.0160145 7.97146 5.59651
16801.00 1407.29 1.050183 45.9389 0.868265 14.9561 0.313546 0.16654 8.92034 0.0264081 15.2402 0.0158317 8.03083 5.52308
16701.00 1406.84 1.050293 45.9729 0.8674 14.97 0.316798 0.164628 8.90297 0.0261141 15.2234 0.0156498 8.09075 5.44939
16601.00 1406.39 1.050413 46.0068 0.866524 14.9836 0.320099 0.16272 8.8857 0.0258216 15.2066 0.0154689 8.15121 5.37546
16501.00 1405.94 1.050543 46.0404 0.865637 14.997 0.32345 0.160816 8.86852 0.0255305 15.1898 0.015289 8.21223 5.3013
16401.00 1405.48 1.050685 46.0738 0.864738 15.0103 0.326851 0.158917 8.85143 0.0252409 15.173 0.0151101 8.27379 5.2269
16301.00 1405.02 1.050838 46.107 0.863825 15.0233 0.330304 0.157023 8.83443 0.0249529 15.1561 0.0149322 8.33591 5.15229
16201.00 1404.56 1.051003 46.1399 0.862899 15.0361 0.333808 0.155134 8.81751 0.0246663 15.1392 0.0147553 8.39858 5.07747
16101.00 1404.09 1.051180 46.1726 0.861957 15.0487 0.337364 0.153251 8.80067 0.0243813 15.1222 0.0145794 8.4618 5.00245
16001.00 1403.62 1.051370 46.2051 0.861 15.0611 0.340971 0.151375 8.78391 0.0240977 15.1052 0.0144045 8.52558 4.92724
15901.00 1403.15 1.051573 46.2373 0.860025 15.0733 0.344631 0.149505 8.76722 0.0238158 15.0882 0.0142306 8.5899 4.85185
15801.00 1402.68 1.051791 46.2693 0.859032 15.0854 0.348342 0.147642 8.7506 0.0235353 15.071 0.0140578 8.65478 4.77629
15701.00 1402.20 1.052022 46.3011 0.85802 15.0972 0.352106 0.145787 8.73404 0.0232565 15.0539 0.013886 8.72021 4.70057
15601.00 1401.73 1.052269 46.3326 0.856987 15.1088 0.355923 0.143941 8.71755 0.0229792 15.0366 0.0137152 8.78619 4.6247
15501.00 1401.24 1.052531 46.364 0.855932 15.1202 0.359792 0.142102 8.70111 0.0227035 15.0192 0.0135455 8.85272 4.5487
15401.00 1400.76 1.052810 46.3951 0.854853 15.1314 0.363713 0.140273 8.68472 0.0224294 15.0018 0.0133768 8.9198 4.47256
15301.00 1400.27 1.053105 46.426 0.85375 15.1425 0.367687 0.138453 8.66837 0.0221569 14.9842 0.0132092 8.98741 4.39632
15201.00 1399.78 1.053418 46.4567 0.852619 15.1533 0.371712 0.136644 8.65206 0.021886 14.9665 0.0130426 9.05557 4.31998
15101.00 1399.28 1.053749 46.4872 0.851461 15.1639 0.37579 0.134844 8.63578 0.0216168 14.9487 0.0128772 9.12427 4.24354
15001.00 1398.78 1.054099 46.5175 0.850272 15.1744 0.379918 0.133055 8.61952 0.0213492 14.9308 0.0127128 9.19349 4.16704
14901.00 1398.28 1.054469 46.5476 0.849051 15.1846 0.384098 0.131278 8.60329 0.0210833 14.9127 0.0125494 9.26325 4.09048
14801.00 1397.77 1.054860 46.5775 0.847797 15.1947 0.388328 0.129513 8.58706 0.020819 14.8945 0.0123872 9.33353 4.01387
14701.00 1397.26 1.055271 46.6072 0.846506 15.2046 0.392608 0.127759 8.57083 0.0205564 14.8761 0.012226 9.40432 3.93724
14601.00 1396.75 1.055705 46.6368 0.845177 15.2143 0.396936 0.126019 8.5546 0.0202955 14.8576 0.012066 9.47563 3.86059
14501.00 1396.23 1.056163 46.6662 0.843808 15.2239 0.401313 0.124292 8.53836 0.0200364 14.8389 0.0119071 9.54744 3.78395
14401.00 1395.71 1.056644 46.6954 0.842397 15.2332 0.405737 0.122578 8.52209 0.0197789 14.8199 0.0117493 9.61974 3.70732
14301.00 1395.18 1.057150 46.7245 0.840939 15.2424 0.410206 0.120879 8.5058 0.0195232 14.8008 0.0115926 9.69253 3.63073
14201.00 1394.65 1.057683 46.7536 0.839434 15.2514 0.414721 0.119195 8.48945 0.0192693 14.7815 0.011437 9.7658 3.5542
14101.00 1394.11 1.058243 46.7824 0.837879 15.2603 0.419278 0.117526 8.47306 0.0190171 14.7619 0.0112826 9.83954 3.47774
14001.00 1393.57 1.058831 46.8113 0.836269 15.269 0.423877 0.115873 8.4566 0.0187667 14.7421 0.0111293 9.91373 3.40138
13901.00 1393.03 1.059448 46.84 0.834604 15.2775 0.428517 0.114236 8.44007 0.0185181 14.7221 0.0109772 9.98837 3.32512
13801.00 1392.48 1.060096 46.8687 0.832878 15.2859 0.433194 0.112616 8.42345 0.0182713 14.7018 0.0108263 10.0634 3.249
13701.00 1391.92 1.060776 46.8973 0.83109 15.2941 0.437907 0.111013 8.40673 0.0180264 14.6812 0.0106765 10.1389 3.17303
13601.00 1391.36 1.061489 46.9259 0.829235 15.3022 0.442655 0.109428 8.3899 0.0177832 14.6603 0.0105279 10.2148 3.09723
13501.00 1390.79 1.062237 46.9546 0.82731 15.3101 0.447434 0.107861 8.37295 0.017542 14.6391 0.0103805 10.2911 3.02163
13401.00 1390.22 1.063020 46.9832 0.825311 15.3179 0.452242 0.106314 8.35586 0.0173026 14.6176 0.0102343 10.3678 2.94625
13301.00 1389.64 1.063841 47.0119 0.823235 15.3256 0.457076 0.104786 8.33861 0.0170651 14.5958 0.0100893 10.4448 2.87111
13201.00 1389.06 1.064701 47.0407 0.821077 15.3331 0.461933 0.103277 8.32119 0.0168295 14.5736 0.00994546 10.5221 2.79624
13101.00 1388.47 1.065601 47.0696 0.818833 15.3405 0.46681 0.10179 8.30359 0.0165959 14.5511 0.00980289 10.5998 2.72166
13001.00 1387.87 1.066543 47.0986 0.816498 15.3477 0.471704 0.100323 8.28579 0.0163642 14.5282 0.00966155 10.6777 2.64739
12901.00 1387.27 1.067528 47.1278 0.814069 15.3549 0.476611 0.0988785 8.26777 0.0161345 14.5049 0.00952146 10.7559 2.57347
12801.00 1386.66 1.068559 47.1572 0.81154 15.3619 0.481527 0.0974559 8.24952 0.0159067 14.4812 0.00938262 10.8344 2.49992
12701.00 1386.04 1.069638 47.1868 0.808907 15.3689 0.486448 0.0960561 8.23101 0.015681 14.4571 0.00924504 10.9131 2.42676
12601.00 1385.41 1.070765 47.2167 0.806164 15.3757 0.491369 0.0946797 8.21223 0.0154572 14.4326 0.00910873 10.992 2.35403
12501.00 1384.78 1.071943 47.2469 0.803306 15.3824 0.496287 0.0933272 8.19316 0.0152356 14.4076 0.00897371 11.071 2.28175
12401.00 1384.14 1.073174 47.2775 0.800328 15.3891 0.501196 0.0919993 8.17377 0.015016 14.3821 0.00883999 11.1502 2.20996
12301.00 1383.49 1.074459 47.3085 0.797223 15.3956 0.506091 0.0906965 8.15406 0.0147985 14.3562 0.00870757 11.2295 2.13869
12201.00 1382.83 1.075801 47.3398 0.793987 15.4021 0.510966 0.0894195 8.13398 0.014583 14.3298 0.00857647 11.3088 2.06796
12101.00 1382.17 1.077202 47.3717 0.790613 15.4085 0.515817 0.0881689 8.11353 0.0143698 14.3028 0.00844671 11.3882 1.99781
12001.00 1381.49 1.078664 47.4041 0.787096 15.4148 0.520638 0.0869452 8.09268 0.0141587 14.2754 0.00831828 11.4676 1.92827
11901.00 1380.81 1.080188 47.4371 0.783428 15.421 0.525421 0.0857493 8.07141 0.0139497 14.2474 0.00819121 11.547 1.85938
11801.00 1380.11 1.081777 47.4708 0.779603 15.4272 0.530161 0.0845816 8.04968 0.013743 14.2188 0.00806551 11.6262 1.79118
11701.00 1379.41 1.083434 47.5051 0.775615 15.4332 0.534851 0.0834428 8.02748 0.0135385 14.1897 0.00794118 11.7054 1.72369
11601.00 1378.69 1.085159 47.5402 0.771457 15.4393 0.539485 0.0823337 8.00479 0.0133363 14.16 0.00781826 11.7843 1.65696
11501.00 1377.96 1.086955 47.5761 0.767122 15.4452 0.544054 0.081255 7.98156 0.0131363 14.1297 0.00769674 11.8631 1.59102
11401.00 1377.23 1.088824 47.613 0.762604 15.4512 0.548553 0.0802073 7.95778 0.0129387 14.0987 0.00757665 11.9416 1.52592
11301.00 1376.48 1.090767 47.6507 0.757894 15.457 0.552972 0.0791915 7.93343 0.0127434 14.0672 0.00745799 12.0197 1.46168
11201.00 1375.72 1.092787 47.6895 0.752986 15.4628 0.557305 0.0782082 7.90846 0.0125504 14.035 0.00734079 12.0975 1.39837
11101.00 1374.95 1.094884 47.7294 0.747873 15.4686 0.561544 0.0772583 7.88286 0.0123599 14.0021 0.00722506 12.1749 1.336
11001.00 1374.16 1.097060 47.7704 0.742548 15.4742 0.565679 0.0763425 7.85658 0.0121718 13.9686 0.00711081 12.2517 1.27464
