Title: Depleted MORB Mantle of Workmann & Hart 2005

Phase Masses:
Pressure Temperature mass liquid_0 olivine_0 garnet_0 orthopyroxene_0 clinopyroxene_0 feldspar_0 spinel_0 
44001.00 1366.12 100.138999 0.000000 59.089961 13.200878 13.835735 12.966013 0.000000 1.046412 
43901.00 1365.92 100.138999 0.000000 59.089152 13.190941 13.843890 12.967732 0.000000 1.047284 
43801.00 1365.72 100.138999 0.000000 59.088338 13.180933 13.852094 12.969472 0.000000 1.048162 
43701.00 1365.51 100.138999 0.000000 59.087516 13.170855 13.860345 12.971235 0.000000 1.049048 
43601.00 1365.31 100.138999 0.000000 59.086687 13.160704 13.868645 12.973021 0.000000 1.049941 
43501.00 1365.11 100.138999 0.000000 59.085852 13.150482 13.876994 12.974829 0.000000 1.050842 
43401.00 1364.90 100.138999 0.000000 59.085009 13.140187 13.885392 12.976660 0.000000 1.051751 
43301.00 1364.70 100.138999 0.000000 59.084159 13.129818 13.893841 12.978514 0.000000 1.052667 
43201.00 1364.50 100.138999 0.000000 59.083302 13.119375 13.902339 12.980391 0.000000 1.053591 
43101.00 1364.30 100.138999 0.000000 59.082438 13.108857 13.910889 12.982292 0.000000 1.054523 
43001.00 1364.09 100.138999 0.000000 59.081566 13.098263 13.919490 12.984217 0.000000 1.055463 
42901.00 1363.89 100.138999 0.000000 59.080686 13.087593 13.928143 12.986166 0.000000 1.056411 
42801.00 1363.69 100.138999 0.000000 59.079799 13.076845 13.936848 12.988140 0.000000 1.057368 
42701.00 1363.48 100.138999 0.000000 59.078903 13.066019 13.945606 12.990137 0.000000 1.058333 
42601.00 1363.28 100.138999 0.000000 59.078000 13.055115 13.954418 12.992160 0.000000 1.059306 
42501.00 1363.08 100.138999 0.000000 59.077089 13.044130 13.963283 12.994208 0.000000 1.060288 
42401.00 1362.87 100.138999 0.000000 59.076170 13.033066 13.972203 12.996281 0.000000 1.061279 
42301.00 1362.67 100.138999 0.000000 59.075242 13.021920 13.981179 12.998380 0.000000 1.062279 
42201.00 1362.47 100.138999 0.000000 59.074306 13.010692 13.990209 13.000505 0.000000 1.063288 
42101.00 1362.26 100.138999 0.000000 59.073361 12.999381 13.999296 13.002655 0.000000 1.064306 
42001.00 1362.06 100.138999 0.000000 59.072408 12.987986 14.008440 13.004832 0.000000 1.065333 
41901.00 1361.86 100.138999 0.000000 59.071445 12.976507 14.017640 13.007036 0.000000 1.066370 
41801.00 1361.65 100.138999 0.000000 59.070474 12.964942 14.026899 13.009267 0.000000 1.067417 
41701.00 1361.45 100.138999 0.000000 59.069494 12.953291 14.036216 13.011525 0.000000 1.068473 
41601.00 1361.24 100.138999 0.000000 59.068504 12.941553 14.045592 13.013811 0.000000 1.069539 
41501.00 1361.04 100.138999 0.000000 59.067506 12.929726 14.055028 13.016124 0.000000 1.070615 
41401.00 1360.84 100.138999 0.000000 59.066497 12.917811 14.064525 13.018466 0.000000 1.071701 
41301.00 1360.63 100.138999 0.000000 59.065479 12.905805 14.074082 13.020835 0.000000 1.072798 
41201.00 1360.43 100.138999 0.000000 59.064451 12.893709 14.083700 13.023234 0.000000 1.073905 
41101.00 1360.23 100.138999 0.000000 59.063414 12.881520 14.093381 13.025662 0.000000 1.075022 
41001.00 1360.02 100.138999 0.000000 59.062366 12.869239 14.103125 13.028119 0.000000 1.076151 
40901.00 1359.82 100.138999 0.000000 59.061308 12.856863 14.112933 13.030605 0.000000 1.077290 
40801.00 1359.61 100.138999 0.000000 59.060239 12.844393 14.122804 13.033122 0.000000 1.078441 
40701.00 1359.41 100.138999 0.000000 59.059160 12.831827 14.132741 13.035668 0.000000 1.079603 
40601.00 1359.21 100.138999 0.000000 59.058070 12.819164 14.142743 13.038246 0.000000 1.080777 
40501.00 1359.00 100.138999 0.000000 59.056970 12.806402 14.152812 13.040854 0.000000 1.081962 
40401.00 1358.80 100.138999 0.000000 59.055858 12.793542 14.162947 13.043493 0.000000 1.083159 
40301.00 1358.59 100.138999 0.000000 59.054735 12.780582 14.173151 13.046164 0.000000 1.084368 
40201.00 1358.39 100.138999 0.000000 59.053600 12.767520 14.183423 13.048867 0.000000 1.085589 
40101.00 1358.18 100.138999 0.000000 59.052454 12.754356 14.193764 13.051603 0.000000 1.086823 
40001.00 1357.98 100.138999 0.000000 59.051296 12.741088 14.204175 13.054371 0.000000 1.088069 
39901.00 1357.78 100.138999 0.000000 59.050126 12.727715 14.214657 13.057172 0.000000 1.089329 
39801.00 1357.57 100.138999 0.000000 59.048944 12.714237 14.225211 13.060006 0.000000 1.090601 
39701.00 1357.37 100.138999 0.000000 59.047749 12.700652 14.235838 13.062874 0.000000 1.091887 
39601.00 1357.16 100.138999 0.000000 59.046542 12.686958 14.246537 13.065776 0.000000 1.093186 
39501.00 1356.96 100.138999 0.000000 59.045322 12.673155 14.257311 13.068713 0.000000 1.094498 
39401.00 1356.75 100.138999 0.000000 59.044088 12.659241 14.268160 13.071684 0.000000 1.095825 
39301.00 1356.55 100.138999 0.000000 59.042842 12.645215 14.279085 13.074691 0.000000 1.097166 
39201.00 1356.34 100.138999 0.000000 59.041582 12.631076 14.290086 13.077733 0.000000 1.098521 
39101.00 1356.14 100.138999 0.000000 59.040309 12.616822 14.301166 13.080812 0.000000 1.099891 
39001.00 1355.93 100.138999 0.000000 59.039021 12.602453 14.312323 13.083927 0.000000 1.101275 
38901.00 1355.73 100.138999 0.000000 59.037720 12.587965 14.323560 13.087078 0.000000 1.102675 
38801.00 1355.52 100.138999 0.000000 59.036404 12.573360 14.334878 13.090267 0.000000 1.104090 
38701.00 1355.32 100.138999 0.000000 59.035073 12.558634 14.346277 13.093494 0.000000 1.105521 
38601.00 1355.11 100.138999 0.000000 59.033727 12.543787 14.357758 13.096759 0.000000 1.106968 
38501.00 1354.91 100.138999 0.000000 59.032367 12.528816 14.369323 13.100063 0.000000 1.108430 
38401.00 1354.70 100.138999 0.000000 59.030991 12.513722 14.380972 13.103405 0.000000 1.109910 
38301.00 1354.50 100.138999 0.000000 59.029599 12.498501 14.392707 13.106787 0.000000 1.111405 
38201.00 1354.29 100.138999 0.000000 59.028191 12.483153 14.404528 13.110209 0.000000 1.112918 
38101.00 1354.09 100.138999 0.000000 59.026767 12.467676 14.416436 13.113671 0.000000 1.114449 
38001.00 1353.88 100.138999 0.000000 59.025327 12.452068 14.428433 13.117175 0.000000 1.115996 
37901.00 1353.68 100.138999 0.000000 59.023869 12.436329 14.440520 13.120719 0.000000 1.117562 
37801.00 1353.47 100.138999 0.000000 59.022395 12.420455 14.452697 13.124306 0.000000 1.119146 
37701.00 1353.27 100.138999 0.000000 59.020903 12.404446 14.464967 13.127934 0.000000 1.120748 
37601.00 1353.06 100.138999 0.000000 59.019394 12.388300 14.477330 13.131606 0.000000 1.122370 
37501.00 1352.85 100.138999 0.000000 59.017866 12.372015 14.489786 13.135321 0.000000 1.124010 
37401.00 1352.65 100.138999 0.000000 59.016320 12.355590 14.502339 13.139080 0.000000 1.125670 
37301.00 1352.44 100.138999 0.000000 59.014756 12.339022 14.514988 13.142883 0.000000 1.127350 
37201.00 1352.24 100.138999 0.000000 59.013172 12.322310 14.527735 13.146731 0.000000 1.129050 
37101.00 1352.03 100.138999 0.000000 59.011570 12.305452 14.540582 13.150625 0.000000 1.130771 
37001.00 1351.82 100.138999 0.000000 59.009947 12.288446 14.553529 13.154564 0.000000 1.132512 
36901.00 1351.62 100.138999 0.000000 59.008304 12.271291 14.566578 13.158551 0.000000 1.134275 
36801.00 1351.41 100.138999 0.000000 59.006641 12.253983 14.579730 13.162584 0.000000 1.136060 
36701.00 1351.20 100.138999 0.000000 59.004957 12.236522 14.592987 13.166665 0.000000 1.137867 
36601.00 1351.00 100.138999 0.000000 59.003252 12.218906 14.606350 13.170795 0.000000 1.139696 
36501.00 1350.79 100.138999 0.000000 59.001526 12.201131 14.619821 13.174973 0.000000 1.141549 
36401.00 1350.58 100.138999 0.000000 58.999777 12.183197 14.633400 13.179201 0.000000 1.143425 
36301.00 1350.38 100.138999 0.000000 58.998006 12.165100 14.647090 13.183479 0.000000 1.145324 
36201.00 1350.17 100.138999 0.000000 58.996212 12.146840 14.660891 13.187808 0.000000 1.147248 
36101.00 1349.96 100.138999 0.000000 58.994395 12.128413 14.674806 13.192188 0.000000 1.149196 
36001.00 1349.76 100.138999 0.000000 58.992554 12.109818 14.688836 13.196621 0.000000 1.151170 
35901.00 1349.55 100.138999 0.000000 58.990689 12.091051 14.702983 13.201106 0.000000 1.153169 
35801.00 1349.34 100.138999 0.000000 58.988799 12.072112 14.717248 13.205645 0.000000 1.155195 
35701.00 1349.13 100.138999 0.000000 58.986885 12.052997 14.731633 13.210238 0.000000 1.157247 
35601.00 1348.93 100.138999 0.000000 58.984944 12.033703 14.746140 13.214885 0.000000 1.159326 
35501.00 1348.72 100.138999 0.000000 58.982978 12.014230 14.760770 13.219589 0.000000 1.161433 
35401.00 1348.51 100.138999 0.000000 58.980985 11.994573 14.775525 13.224348 0.000000 1.163568 
35301.00 1348.30 100.138999 0.000000 58.978965 11.974730 14.790407 13.229164 0.000000 1.165732 
35201.00 1348.10 100.138999 0.000000 58.976917 11.954700 14.805418 13.234039 0.000000 1.167925 
35101.00 1347.89 100.138999 0.000000 58.974841 11.934478 14.820560 13.238971 0.000000 1.170148 
35001.00 1347.68 100.138999 0.000000 58.972737 11.914063 14.835834 13.243963 0.000000 1.172402 
34901.00 1347.47 100.138999 0.000000 58.970603 11.893451 14.851243 13.249016 0.000000 1.174686 
34801.00 1347.26 100.138999 0.000000 58.968439 11.872641 14.866788 13.254129 0.000000 1.177003 
34701.00 1347.06 100.138999 0.000000 58.966245 11.851627 14.882472 13.259303 0.000000 1.179351 
34601.00 1346.85 100.138999 0.000000 58.964020 11.830409 14.898297 13.264541 0.000000 1.181733 
34501.00 1346.64 100.138999 0.000000 58.961763 11.808983 14.914264 13.269841 0.000000 1.184148 
34401.00 1346.43 100.138999 0.000000 58.959474 11.787345 14.930377 13.275206 0.000000 1.186597 
34301.00 1346.22 100.138999 0.000000 58.957152 11.765493 14.946636 13.280637 0.000000 1.189081 
34201.00 1346.01 100.138999 0.000000 58.954796 11.743424 14.963046 13.286133 0.000000 1.191601 
34101.00 1345.80 100.138999 0.000000 58.952405 11.721134 14.979607 13.291696 0.000000 1.194158 
34001.00 1345.59 100.138999 0.000000 58.949980 11.698619 14.996322 13.297327 0.000000 1.196751 
33901.00 1345.38 100.138999 0.000000 58.947519 11.675877 15.013193 13.303027 0.000000 1.199382 
33801.00 1345.17 100.138999 0.000000 58.945021 11.652904 15.030224 13.308797 0.000000 1.202052 
33701.00 1344.97 100.138999 0.000000 58.942486 11.629696 15.047417 13.314638 0.000000 1.204762 
33601.00 1344.76 100.138999 0.000000 58.939913 11.606250 15.064773 13.320551 0.000000 1.207512 
33501.00 1344.55 100.138999 0.000000 58.937301 11.582562 15.082297 13.326537 0.000000 1.210303 
33401.00 1344.34 100.138999 0.000000 58.934649 11.558628 15.099989 13.332597 0.000000 1.213136 
33301.00 1344.13 100.138999 0.000000 58.931957 11.534445 15.117854 13.338731 0.000000 1.216012 
33201.00 1343.92 100.138999 0.000000 58.929223 11.510008 15.135895 13.344942 0.000000 1.218931 
33101.00 1343.70 100.138999 0.000000 58.926448 11.485313 15.154113 13.351230 0.000000 1.221895 
33001.00 1343.49 100.138999 0.000000 58.923629 11.460357 15.172511 13.357597 0.000000 1.224905 
32901.00 1343.28 100.138999 0.000000 58.920766 11.435134 15.191094 13.364043 0.000000 1.227962 
32801.00 1343.07 100.138999 0.000000 58.917858 11.409641 15.209864 13.370570 0.000000 1.231066 
32701.00 1342.86 100.138999 0.000000 58.914903 11.383874 15.228824 13.377179 0.000000 1.234219 
32601.00 1342.65 100.138999 0.000000 58.911902 11.357827 15.247977 13.383872 0.000000 1.237421 
32501.00 1342.44 100.138999 0.000000 58.908853 11.331496 15.267327 13.390648 0.000000 1.240674 
32401.00 1342.23 100.138999 0.000000 58.905755 11.304877 15.286876 13.397511 0.000000 1.243980 
32301.00 1342.02 100.138999 0.000000 58.902607 11.277965 15.306629 13.404461 0.000000 1.247338 
32201.00 1341.80 100.138999 0.000000 58.899407 11.250754 15.326589 13.411499 0.000000 1.250750 
32101.00 1341.59 100.138999 0.000000 58.896155 11.223240 15.346760 13.418627 0.000000 1.254217 
32001.00 1341.38 100.138999 0.000000 58.892849 11.195417 15.367145 13.425847 0.000000 1.257741 
31901.00 1341.17 100.138999 0.000000 58.889489 11.167280 15.387748 13.433159 0.000000 1.261323 
31801.00 1340.96 100.138999 0.000000 58.886073 11.138825 15.408572 13.440565 0.000000 1.264964 
31701.00 1340.74 100.138999 0.000000 58.882599 11.110044 15.429623 13.448068 0.000000 1.268665 
31601.00 1340.53 100.138999 0.000000 58.879067 11.080933 15.450903 13.455667 0.000000 1.272428 
31501.00 1340.32 100.138999 0.000000 58.875476 11.051487 15.472417 13.463365 0.000000 1.276255 
31401.00 1340.10 100.138999 0.000000 58.871823 11.021698 15.494169 13.471164 0.000000 1.280145 
31301.00 1339.89 100.138999 0.000000 58.868107 10.991560 15.516164 13.479065 0.000000 1.284102 
31201.00 1339.68 100.138999 0.000000 58.864328 10.961069 15.538406 13.487070 0.000000 1.288126 
31101.00 1339.46 100.138999 0.000000 58.860483 10.930217 15.560900 13.495180 0.000000 1.292219 
31001.00 1339.25 100.138999 0.000000 58.856571 10.898998 15.583650 13.503397 0.000000 1.296383 
30901.00 1339.03 100.138999 0.000000 58.852590 10.867405 15.606661 13.511724 0.000000 1.300619 
30801.00 1338.82 100.138999 0.000000 58.848540 10.835431 15.629937 13.520162 0.000000 1.304929 
30701.00 1338.61 100.138999 0.000000 58.844418 10.803070 15.653485 13.528712 0.000000 1.309314 
30601.00 1338.39 100.138999 0.000000 58.840222 10.770314 15.677308 13.537377 0.000000 1.313777 
30501.00 1338.18 100.138999 0.000000 58.835952 10.737156 15.701413 13.546159 0.000000 1.318319 
30401.00 1337.96 100.138999 0.000000 58.831604 10.703589 15.725804 13.555060 0.000000 1.322942 
30301.00 1337.75 100.138999 0.000000 58.827178 10.669604 15.750488 13.564081 0.000000 1.327648 
30201.00 1337.53 100.138999 0.000000 58.822672 10.635194 15.775469 13.573226 0.000000 1.332438 
30101.00 1337.31 100.138999 0.000000 58.818083 10.600352 15.800754 13.582495 0.000000 1.337315 
30001.00 1337.10 100.138999 0.000000 58.813410 10.565067 15.826348 13.591892 0.000000 1.342281 
29901.00 1336.88 100.138999 0.000000 58.808650 10.529333 15.852258 13.601419 0.000000 1.347338 
29801.00 1336.66 100.138999 0.000000 58.803802 10.493141 15.878490 13.611078 0.000000 1.352488 
29701.00 1336.45 100.138999 0.000000 58.798864 10.456481 15.905050 13.620871 0.000000 1.357734 
29601.00 1336.23 100.138999 0.000000 58.793833 10.419344 15.931944 13.630801 0.000000 1.363076 
29501.00 1336.01 100.138999 0.000000 58.788707 10.381722 15.959181 13.640871 0.000000 1.368519 
29401.00 1335.79 100.138999 0.000000 58.783484 10.343604 15.986765 13.651082 0.000000 1.374064 
29301.00 1335.58 100.138999 0.000000 58.778161 10.304981 16.014705 13.661438 0.000000 1.379714 
29201.00 1335.36 100.138999 0.000000 58.772736 10.265842 16.043007 13.671942 0.000000 1.385471 
29101.00 1335.14 100.138999 0.000000 58.767207 10.226178 16.071680 13.682596 0.000000 1.391338 
29001.00 1334.92 100.138999 0.000000 58.761571 10.185978 16.100730 13.693402 0.000000 1.397318 
28901.00 1334.70 100.138999 0.000000 58.755825 10.145230 16.130166 13.704365 0.000000 1.403413 
28801.00 1334.48 100.138999 0.000000 58.749967 10.103925 16.159995 13.715486 0.000000 1.409626 
28701.00 1334.26 100.138999 0.000000 58.743993 10.062050 16.190226 13.726770 0.000000 1.415960 
28601.00 1334.04 100.138999 0.000000 58.737902 10.019593 16.220867 13.738219 0.000000 1.422418 
28501.00 1333.82 100.138999 0.000000 58.731690 9.976543 16.251927 13.749836 0.000000 1.429003 
28401.00 1333.60 100.138999 0.000000 58.725354 9.932887 16.283414 13.761625 0.000000 1.435719 
28301.00 1333.38 100.138999 0.000000 58.718891 9.888612 16.315338 13.773589 0.000000 1.442568 
28201.00 1333.16 100.138999 0.000000 58.712298 9.843706 16.347709 13.785732 0.000000 1.449554 
28101.00 1332.94 100.138999 0.000000 58.705571 9.798156 16.380535 13.798058 0.000000 1.456679 
28001.00 1332.72 100.138999 0.000000 58.698708 9.751946 16.413826 13.810569 0.000000 1.463949 
27901.00 1332.49 100.138999 0.000000 58.691705 9.705064 16.447593 13.823271 0.000000 1.471366 
27801.00 1332.27 100.138999 0.000000 58.684557 9.657495 16.481847 13.836166 0.000000 1.478934 
27701.00 1332.05 100.138999 0.000000 58.677262 9.609224 16.516597 13.849259 0.000000 1.486657 
27601.00 1331.83 100.138999 0.000000 58.669816 9.560236 16.551854 13.862554 0.000000 1.494539 
27501.00 1331.60 100.138999 0.000000 58.662215 9.510514 16.587631 13.876055 0.000000 1.502584 
27401.00 1331.38 100.138999 0.000000 58.654455 9.460044 16.623938 13.889767 0.000000 1.510795 
27301.00 1331.15 100.138999 0.000000 58.646532 9.408808 16.660787 13.903694 0.000000 1.519178 
27201.00 1330.93 100.138999 0.000000 58.638441 9.356789 16.698191 13.917841 0.000000 1.527737 
27101.00 1330.70 100.138999 0.000000 58.630178 9.303970 16.736163 13.932212 0.000000 1.536476 
27001.00 1330.48 100.138999 0.000000 58.621740 9.250332 16.774714 13.946813 0.000000 1.545400 
26901.00 1330.25 100.138999 0.000000 58.613120 9.195858 16.813859 13.961649 0.000000 1.554514 
26801.00 1330.02 100.138999 0.000000 58.604315 9.140528 16.853610 13.976724 0.000000 1.563822 
26701.00 1329.80 100.138999 0.000000 58.595319 9.084322 16.893983 13.992044 0.000000 1.573331 
26601.00 1329.57 100.138999 0.000000 58.586128 9.027221 16.934991 14.007615 0.000000 1.583044 
26501.00 1329.34 100.138999 0.000000 58.576737 8.969203 16.976649 14.023442 0.000000 1.592968 
26401.00 1329.11 100.138999 0.000000 58.567139 8.910248 17.018973 14.039531 0.000000 1.603109 
26301.00 1328.88 100.138999 0.000000 58.557329 8.850332 17.061978 14.055888 0.000000 1.613471 
26201.00 1328.66 100.138999 0.000000 58.547303 8.789434 17.105681 14.072520 0.000000 1.624061 
26101.00 1328.43 100.138999 0.000000 58.537053 8.727531 17.150098 14.089433 0.000000 1.634884 
26001.00 1328.20 100.138999 0.000000 58.526574 8.664597 17.195247 14.106633 0.000000 1.645949 
25901.00 1327.96 100.138999 0.000000 58.515860 8.600608 17.241144 14.124127 0.000000 1.657260 
25801.00 1327.73 100.138999 0.000000 58.504904 8.535539 17.287809 14.141923 0.000000 1.668824 
25701.00 1327.50 100.138999 0.000000 58.493700 8.469362 17.335260 14.160028 0.000000 1.680649 
25601.00 1327.27 100.138999 0.000000 58.482240 8.402052 17.383517 14.178448 0.000000 1.692742 
25501.00 1327.04 100.138999 0.000000 58.470517 8.333580 17.432600 14.197193 0.000000 1.705109 
25401.00 1326.80 100.138999 0.000000 58.458525 8.263916 17.482528 14.216269 0.000000 1.717760 
25301.00 1326.57 100.138999 0.000000 58.446256 8.193032 17.533325 14.235686 0.000000 1.730701 
25201.00 1326.33 100.138999 0.000000 58.433701 8.120895 17.585011 14.255452 0.000000 1.743941 
25101.00 1326.10 100.138999 0.000000 58.420853 8.047474 17.637609 14.275575 0.000000 1.757488 
25001.00 1325.86 100.138999 0.000000 58.407703 7.972736 17.691143 14.296065 0.000000 1.771351 
24901.00 1325.63 100.138999 0.000000 58.394243 7.896647 17.745637 14.316932 0.000000 1.785539 
24801.00 1325.39 100.138999 0.000000 58.380464 7.819172 17.801116 14.338185 0.000000 1.800062 
24701.00 1325.15 100.138999 0.000000 58.366356 7.740273 17.857606 14.359835 0.000000 1.814929 
24601.00 1324.91 100.138999 0.000000 58.351909 7.659914 17.915134 14.381892 0.000000 1.830150 
24501.00 1324.67 100.138999 0.000000 58.337115 7.578055 17.973727 14.404366 0.000000 1.845736 
24401.00 1324.43 100.138999 0.000000 58.321962 7.494656 18.033414 14.427270 0.000000 1.861697 
24301.00 1324.19 100.138999 0.000000 58.306439 7.409675 18.094225 14.450615 0.000000 1.878045 
24201.00 1323.95 100.138999 0.000000 58.290536 7.323068 18.156191 14.474414 0.000000 1.894791 
24101.00 1323.71 100.138999 0.000000 58.274241 7.234790 18.219343 14.498678 0.000000 1.911947 
24001.00 1323.46 100.138999 0.000000 58.257542 7.144795 18.283714 14.523422 0.000000 1.929526 
23901.00 1323.22 100.138999 0.000000 58.240427 7.053034 18.349339 14.548659 0.000000 1.947540 
23801.00 1322.98 100.138999 0.000000 58.222883 6.959456 18.416254 14.574402 0.000000 1.966004 
23701.00 1322.73 100.138999 0.000000 58.204895 6.864011 18.484494 14.600668 0.000000 1.984931 
