Title: Depleted MORB Mantle of Workmann & Hart 2005

liquid_0 thermodynamic data and composition:
Pressure Temperature mass S H V Cp viscosity SiO2 TiO2 Al2O3 Fe2O3 Cr2O3 FeO MnO MgO NiO CaO Na2O
7251.00 1339.40 0.144019 0.395847 -1765.219342 0.052163 0.223774 1.759 51.2196 0.299683 14.9289 0.578545 0.0844584 6.1926 0.00777424 12.4334 0.00441755 14.2377 0.0129078
7001.00 1338.01 0.421032 1.157746 -5169.843770 0.152857 0.654313 1.794 51.6044 0.280214 14.8991 0.583015 0.0878461 6.15238 0.00773243 12.5513 0.00438579 13.8209 0.00876902
6751.00 1336.62 0.704115 1.937077 -8661.375380 0.256246 1.094449 1.829 51.9993 0.263185 14.8624 0.58763 0.0914972 6.1123 0.00770199 12.6756 0.00436045 13.3895 0.00659477
6501.00 1335.19 0.994928 2.738446 -12260.663047 0.362965 1.546765 1.865 52.4028 0.248181 14.8176 0.592308 0.095366 6.07208 0.00768109 12.804 0.00434045 12.9504 0.00524953
6251.00 1333.76 1.101142 3.032287 -13593.825154 0.402707 1.712215 1.902 52.815 0.234443 14.765 0.597166 0.0994348 6.03243 0.00766965 12.9379 0.00432576 12.5024 0.004227
6001.00 1332.32 1.098855 3.027523 -13589.726432 0.402877 1.708994 1.938 53.2363 0.221591 14.7043 0.60226 0.103704 5.99375 0.00766826 13.0782 0.0043167 12.0444 0.00338387
5751.00 1330.88 1.097030 3.024059 -13591.162229 0.403229 1.706498 1.974 53.6669 0.209548 14.6346 0.607517 0.108174 5.95593 0.00767758 13.2245 0.00431359 11.5781 0.0026922
5501.00 1329.43 1.095552 3.021563 -13596.683561 0.403721 1.704541 2.011 54.1067 0.198246 14.5548 0.612857 0.112843 5.91888 0.00769841 13.3759 0.00431687 11.1056 0.00212809
5251.00 1327.97 1.094278 3.019631 -13604.516385 0.404300 1.702897 2.048 54.5558 0.187624 14.4637 0.618188 0.117704 5.88253 0.00773172 13.5317 0.00432706 10.629 0.00167103
5001.00 1326.51 1.093041 3.017790 -13612.540175 0.404906 1.701295 2.084 55.0142 0.17763 14.36 0.62341 0.122743 5.84679 0.00777872 13.6909 0.00434478 10.1509 0.00130337
4751.00 1325.04 1.091648 3.015493 -13618.299297 0.405465 1.699430 2.121 55.4816 0.168218 14.2422 0.628414 0.12794 5.81163 0.00784081 13.8526 0.00437079 9.67419 0.00100992
4501.00 1323.56 1.089887 3.012142 -13619.066296 0.405898 1.696960 2.157 55.9579 0.159346 14.109 0.63309 0.133268 5.77703 0.00791968 14.0155 0.00440599 9.20172 0.000777638
4251.00 1322.07 1.087537 3.007110 -13611.974646 0.406120 1.693532 2.193 56.4429 0.150977 13.9587 0.637323 0.138689 5.743 0.00801727 14.1787 0.00445143 8.73668 0.000595322
4001.00 1320.58 1.084384 2.999795 -13594.229233 0.406048 1.688803 2.229 56.9361 0.143075 13.7898 0.641005 0.144159 5.70964 0.00813589 14.3409 0.00450835 8.28219 0.000453445
3751.00 1319.09 1.080244 2.989677 -13563.385138 0.405608 1.682480 2.264 57.4371 0.135608 13.6007 0.644037 0.149625 5.67707 0.00827816 14.5014 0.00457815 7.84124 0.000343948
3501.00 1317.63 0.847532 2.346669 -10657.433454 0.319107 1.320111 2.298 57.9465 0.128266 13.3918 0.647005 0.155092 5.64721 0.00844838 14.6658 0.00466319 7.40525 0
3251.00 1316.14 1.069144 2.961455 -13463.559019 0.403660 1.665286 2.331 58.4616 0.121585 13.158 0.648463 0.160387 5.61686 0.00864756 14.8204 0.00476391 6.99923 0
3001.00 1314.66 1.061544 2.941504 -13386.286149 0.401900 1.653370 2.363 58.9829 0.115241 12.9001 0.649069 0.165505 5.5882 0.00888088 14.9717 0.00488314 6.61354 0
2751.00 1313.20 1.052940 2.918688 -13295.154339 0.399744 1.639824 2.394 59.5096 0.1092 12.617 0.648794 0.170395 5.56164 0.00915294 15.1199 0.00502332 6.24925 0
2501.00 1311.75 1.043552 2.893616 -13192.814249 0.397271 1.624993 2.423 60.0414 0.103431 12.3078 0.647623 0.175013 5.53766 0.00946907 15.2657 0.00518728 5.90679 0
2251.00 1310.32 1.033665 2.867086 -13082.799469 0.394585 1.609329 2.450 60.5777 0.0979016 11.9717 0.645551 0.179331 5.51681 0.00983549 15.4099 0.00537833 5.58597 0
2001.00 1308.90 1.023609 2.840021 -12969.230525 0.391809 1.593354 2.475 61.1183 0.0925817 11.6078 0.642579 0.183332 5.49964 0.0102596 15.5538 0.00560039 5.28605 0
1751.00 1307.51 1.013734 2.813404 -12856.533237 0.389076 1.577626 2.497 61.663 0.0874429 11.2155 0.638705 0.187011 5.48675 0.0107503 15.6991 0.00585817 5.00589 0
1501.00 1306.13 1.004401 2.788241 -12749.239452 0.386522 1.562713 2.516 62.2118 0.0824587 10.7936 0.633918 0.190382 5.47877 0.0113184 15.8475 0.00615741 4.74401 0
1251.00 1304.76 0.995969 2.765539 -12651.915986 0.384286 1.549187 2.531 62.7648 0.0776044 10.3412 0.628193 0.193466 5.47636 0.0119774 16.0011 0.0065052 4.49874 0
1001.00 1303.40 0.988806 2.746332 -12569.248920 0.382512 1.537633 2.542 63.3224 0.0728565 9.85666 0.621482 0.196301 5.48026 0.012744 16.1622 0.00691041 4.26825 0
751.00 1302.04 0.983314 2.731737 -12506.306608 0.381357 1.528682 2.549 63.885 0.0681917 9.33816 0.613705 0.198934 5.49124 0.0136395 16.3331 0.00738427 4.05067 0
501.00 1300.68 0.979960 2.723062 -12469.024334 0.381006 1.523073 2.551 64.4533 0.0635855 8.78334 0.604735 0.201425 5.51019 0.014691 16.5167 0.00794116 3.84409 0
251.00 1299.30 0.979346 2.721981 -12465.006027 0.381697 1.521752 2.547 65.0282 0.0590107 8.18924 0.594389 0.203847 5.53809 0.0159338 16.7161 0.0085997 3.64658 0
1.00 1297.88 0.982310 2.730825 -12504.844268 0.383764 1.526031 2.537 65.6109 0.0544344 7.55231 0.582393 0.206289 5.57606 0.017414 16.9347 0.00938425 3.4562 0

olivine_0 thermodynamic data and composition:
Pressure Temperature mass S H V Cp formula SiO2 TiO2 Al2O3 Fe2O3 Cr2O3 FeO MnO MgO NiO CaO Na2O
7251.00 1339.40 59.288927 151.452601 -746825.644536 18.611276 76.208368 (Ca0.01Mg0.90Fe''0.09Mn0.00Co0.00Ni0.00)2SiO4 40.8642 0 0 0 0 8.89169 0.214644 49.161 0.402064 0.466486 0
7001.00 1338.01 59.415684 151.734598 -749037.776342 18.653396 76.380597 (Ca0.01Mg0.90Fe''0.09Mn0.00Co0.00Ni0.00)2SiO4 40.8671 0 0 0 0 8.88326 0.21415 49.1766 0.401186 0.457707 0
6751.00 1336.62 59.553558 152.043892 -751397.363050 18.699013 76.567215 (Ca0.01Mg0.90Fe''0.09Mn0.00Co0.00Ni0.00)2SiO4 40.8701 0 0 0 0 8.87457 0.213618 49.1929 0.400236 0.448603 0
6501.00 1335.19 59.703668 152.382974 -753920.306940 18.748492 76.769631 (Ca0.01Mg0.90Fe''0.09Mn0.00Co0.00Ni0.00)2SiO4 40.8732 0 0 0 0 8.86545 0.213044 49.2098 0.399209 0.439328 0
6251.00 1333.76 59.861273 152.740373 -756544.611830 18.800342 76.981783 (Ca0.01Mg0.90Fe''0.09Mn0.00Co0.00Ni0.00)2SiO4 40.8764 0 0 0 0 8.85608 0.212445 49.2271 0.398137 0.429842 0
6001.00 1332.32 60.023572 153.109290 -759233.765161 18.853680 77.200092 (Ca0.01Mg0.90Fe''0.09Mn0.00Co0.00Ni0.00)2SiO4 40.8797 0 0 0 0 8.84655 0.211833 49.2448 0.39704 0.420118 0
5751.00 1330.88 60.190866 153.490383 -761992.043218 18.908604 77.424937 (Ca0.01Mg0.90Fe''0.09Mn0.00Co0.00Ni0.00)2SiO4 40.883 0 0 0 0 8.83682 0.211207 49.2628 0.395915 0.410191 0
5501.00 1329.43 60.363407 153.884208 -764823.064604 18.965196 77.656632 (Ca0.01Mg0.90Fe''0.09Mn0.00Co0.00Ni0.00)2SiO4 40.8865 0 0 0 0 8.82688 0.210565 49.2812 0.394762 0.400104 0
5251.00 1327.97 60.541379 154.291160 -767729.486428 19.023519 77.895401 (Ca0.01Mg0.90Fe''0.09Mn0.00Co0.00Ni0.00)2SiO4 40.89 0 0 0 0 8.81669 0.209907 49.3 0.39358 0.389904 0
5001.00 1326.51 60.724871 154.711419 -770712.656277 19.083605 78.141347 (Ca0.00Mg0.90Fe''0.09Mn0.00Co0.00Ni0.00)2SiO4 40.8935 0 0 0 0 8.80626 0.209234 49.319 0.392369 0.379646 0
4751.00 1325.04 60.913847 155.144882 -773772.240082 19.145446 78.394411 (Ca0.00Mg0.90Fe''0.09Mn0.00Co0.00Ni0.00)2SiO4 40.8971 0 0 0 0 8.79558 0.208545 49.3382 0.39113 0.36939 0
4501.00 1323.56 61.108125 155.591102 -776905.863253 19.208992 78.654345 (Ca0.00Mg0.90Fe''0.09Mn0.00Co0.00Ni0.00)2SiO4 40.9008 0 0 0 0 8.78466 0.207842 49.3577 0.389864 0.359205 0
4251.00 1322.07 61.307352 156.049237 -780108.821199 19.274135 78.920679 (Ca0.00Mg0.90Fe''0.09Mn0.00Co0.00Ni0.00)2SiO4 40.9044 0 0 0 0 8.77352 0.207125 49.3772 0.388574 0.349158 0
4001.00 1320.58 61.510991 156.518025 -783373.929503 19.340712 79.192711 (Ca0.00Mg0.90Fe''0.09Mn0.00Co0.00Ni0.00)2SiO4 40.9081 0 0 0 0 8.76219 0.206398 49.3967 0.387265 0.339325 0
3751.00 1319.09 61.718333 156.995790 -786691.585942 19.408503 79.469513 (Ca0.00Mg0.90Fe''0.09Mn0.00Co0.00Ni0.00)2SiO4 40.9118 0 0 0 0 8.7507 0.205662 49.4161 0.38594 0.329776 0
3501.00 1317.63 61.919757 157.459646 -789933.581159 19.474464 79.738823 (Ca0.00Mg0.90Fe''0.09Mn0.00Co0.00Ni0.00)2SiO4 40.9155 0 0 0 0 8.73947 0.204951 49.4352 0.384662 0.320273 0
3251.00 1316.14 62.132155 157.949836 -793324.543770 19.543959 80.022106 (Ca0.00Mg0.90Fe''0.09Mn0.00Co0.00Ni0.00)2SiO4 40.9191 0 0 0 0 8.7278 0.204207 49.4541 0.383323 0.311484 0
3001.00 1314.66 62.345381 158.442239 -796729.162974 19.613775 80.306430 (Ca0.00Mg0.91Fe''0.09Mn0.00Co0.00Ni0.00)2SiO4 40.9227 0 0 0 0 8.71614 0.203463 49.4726 0.381987 0.303154 0
2751.00 1313.20 62.558439 158.934498 -800133.937928 19.683599 80.590506 (Ca0.00Mg0.91Fe''0.09Mn0.00Co0.00Ni0.00)2SiO4 40.9262 0 0 0 0 8.70454 0.202725 49.4905 0.380662 0.295317 0
2501.00 1311.75 62.770430 159.424476 -803526.708791 19.753150 80.873170 (Ca0.00Mg0.91Fe''0.09Mn0.00Co0.00Ni0.00)2SiO4 40.9296 0 0 0 0 8.69304 0.201994 49.508 0.379351 0.287992 0
2251.00 1310.32 62.980618 159.910407 -806897.550076 19.822194 81.153474 (Ca0.00Mg0.91Fe''0.09Mn0.00Co0.00Ni0.00)2SiO4 40.933 0 0 0 0 8.68167 0.201273 49.5248 0.378059 0.281183 0
2001.00 1308.90 63.188482 160.391018 -810239.478054 19.890565 81.430743 (Ca0.00Mg0.91Fe''0.09Mn0.00Co0.00Ni0.00)2SiO4 40.9362 0 0 0 0 8.67045 0.200562 49.5411 0.376789 0.274878 0
1751.00 1307.51 63.393750 160.865610 -813548.952771 19.958177 81.704629 (Ca0.00Mg0.91Fe''0.09Mn0.00Co0.00Ni0.00)2SiO4 40.9394 0 0 0 0 8.6594 0.199863 49.5568 0.375542 0.269055 0
1501.00 1306.13 63.596427 161.334114 -816826.215050 20.025026 81.975135 (Ca0.00Mg0.91Fe''0.09Mn0.00Co0.00Ni0.00)2SiO4 40.9424 0 0 0 0 8.64849 0.199174 49.5719 0.374317 0.263682 0
1251.00 1304.76 63.796811 161.797130 -820075.546289 20.091205 82.242642 (Ca0.00Mg0.91Fe''0.09Mn0.00Co0.00Ni0.00)2SiO4 40.9454 0 0 0 0 8.6377 0.198494 49.5866 0.373112 0.258717 0
1001.00 1303.40 63.995513 162.255978 -823305.573354 20.156901 82.507933 (Ca0.00Mg0.91Fe''0.09Mn0.00Co0.00Ni0.00)2SiO4 40.9483 0 0 0 0 8.62699 0.197821 49.6008 0.371923 0.254114 0
751.00 1302.04 64.193493 162.712767 -826529.772215 20.222413 82.772240 (Ca0.00Mg0.91Fe''0.09Mn0.00Co0.00Ni0.00)2SiO4 40.9512 0 0 0 0 8.61628 0.197149 49.6148 0.370742 0.249821 0
501.00 1300.68 64.392127 163.170541 -829767.371302 20.288171 83.037323 (Ca0.00Mg0.91Fe''0.09Mn0.00Co0.00Ni0.00)2SiO4 40.9541 0 0 0 0 8.6055 0.196474 49.6286 0.369563 0.24578 0
251.00 1299.30 64.593313 163.633529 -833044.948146 20.354770 83.305613 (Ca0.00Mg0.91Fe''0.09Mn0.00Co0.00Ni0.00)2SiO4 40.957 0 0 0 0 8.59452 0.195789 49.6424 0.368372 0.241927 0
1.00 1297.88 64.799675 164.107577 -836399.200257 20.423031 83.580467 (Ca0.00Mg0.91Fe''0.09Mn0.00Co0.00Ni0.00)2SiO4 40.9599 0 0 0 0 8.58318 0.195082 49.6565 0.367155 0.238192 0

orthopyroxene_0 thermodynamic data and composition:
Pressure Temperature mass S H V Cp structure formula SiO2 TiO2 Al2O3 Fe2O3 Cr2O3 FeO MnO MgO NiO CaO Na2O
7251.00 1339.40 19.845761 50.856237 -256294.074734 6.282413 25.846719 opx Na0.00Ca0.10Fe''0.16Mg1.69Fe'''0.01Ti0.00Al0.10Si1.95O6 56.3154 0.0355183 2.48404 0.201504 0 5.56068 0 32.8129 0 2.58971 0.000252692
7001.00 1338.01 19.483973 49.920828 -251859.504701 6.169285 25.389179 opx Na0.00Ca0.09Fe''0.16Mg1.70Fe'''0.01Ti0.00Al0.10Si1.95O6 56.3557 0.0335773 2.45527 0.200852 0 5.55752 0 32.927 0 2.46991 0.000163452
6751.00 1336.62 19.102581 48.934673 -247160.882628 6.049926 24.905060 opx Na0.00Ca0.09Fe''0.16Mg1.70Fe'''0.01Ti0.00Al0.10Si1.95O6 56.3973 0.0318191 2.42298 0.199981 0 5.55419 0 33.0383 0 2.35539 0.000116909
6501.00 1335.19 18.700967 47.896076 -242189.128488 5.924136 24.393442 opx Na0.00Ca0.08Fe''0.16Mg1.71Fe'''0.01Ti0.00Al0.10Si1.95O6 56.4403 0.0301945 2.38658 0.19885 0 5.5508 0 33.1461 0 2.24713 8.84358e-005
6251.00 1333.76 18.288031 46.828223 -237059.058887 5.794727 23.866071 opx Na0.00Ca0.08Fe''0.16Mg1.71Fe'''0.01Ti0.00Al0.10Si1.95O6 56.4847 0.028637 2.34658 0.197494 0 5.54743 0 33.2512 0 2.14392 6.76104e-005
6001.00 1332.32 17.868881 45.744430 -231836.779204 5.663314 23.329712 opx Na0.00Ca0.08Fe''0.16Mg1.72Fe'''0.01Ti0.00Al0.09Si1.95O6 56.5304 0.0271162 2.30323 0.195927 0 5.5441 0 33.3542 0 2.04496 5.13382e-005
5751.00 1330.88 17.442792 44.642858 -226512.740922 5.529665 22.783435 opx Na0.00Ca0.07Fe''0.16Mg1.72Fe'''0.01Ti0.00Al0.09Si1.95O6 56.5778 0.0256264 2.25628 0.194132 0 5.54086 0 33.4551 0 1.95019 3.87038e-005
5501.00 1329.43 17.009178 43.522037 -221079.181384 5.393591 22.226489 opx Na0.00Ca0.07Fe''0.16Mg1.72Fe'''0.00Ti0.00Al0.09Si1.95O6 56.6268 0.0241631 2.20549 0.192091 0 5.53774 0 33.5541 0 1.85959 2.89623e-005
5251.00 1327.97 16.567638 42.380984 -215530.735469 5.254963 21.658368 opx Na0.00Ca0.07Fe''0.16Mg1.73Fe'''0.00Ti0.00Al0.09Si1.95O6 56.6776 0.0227227 2.15063 0.189785 0 5.5348 0 33.6513 0 1.77313 2.15081e-005
5001.00 1326.51 16.118015 41.219340 -209865.120580 5.113726 21.078876 opx Na0.00Ca0.06Fe''0.16Mg1.73Fe'''0.00Ti0.00Al0.08Si1.95O6 56.7304 0.0213024 2.09149 0.187196 0 5.53205 0 33.7467 0 1.69083 1.58504e-005
4751.00 1325.04 15.660439 40.037501 -204083.847524 4.969919 20.488200 opx Na0.00Ca0.06Fe''0.16Mg1.74Fe'''0.00Ti0.00Al0.08Si1.96O6 56.7852 0.0199009 2.02789 0.184307 0 5.52956 0 33.8404 0 1.6127 1.15931e-005
4501.00 1323.56 15.195383 38.836744 -198192.874618 4.823686 19.886973 opx Na0.00Ca0.06Fe''0.16Mg1.74Fe'''0.00Ti0.00Al0.08Si1.96O6 56.8422 0.0185179 1.95972 0.1811 0 5.52736 0 33.9323 0 1.53877 8.41799e-006
4251.00 1322.07 14.723695 37.619315 -192203.086173 4.675293 19.276322 opx Na0.00Ca0.05Fe''0.16Mg1.75Fe'''0.00Ti0.00Al0.08Si1.96O6 56.9014 0.0171545 1.88694 0.177564 0 5.52549 0 34.0224 0 1.46908 6.07134e-006
4001.00 1320.58 14.246609 36.388449 -186130.452029 4.525124 18.657880 opx Na0.00Ca0.05Fe''0.16Mg1.75Fe'''0.00Ti0.00Al0.07Si1.96O6 56.9626 0.0158133 1.80965 0.17369 0 5.524 0 34.1106 0 1.40365 4.35245e-006
3751.00 1319.09 13.765716 35.148305 -179995.727675 4.373682 18.033759 opx Na0.00Ca0.05Fe''0.16Mg1.75Fe'''0.00Ti0.00Al0.07Si1.96O6 57.0257 0.014498 1.72804 0.169474 0 5.52292 0 34.1969 0 1.34247 3.10417e-006
3501.00 1317.63 13.299324 33.946104 -174038.585459 4.226776 17.428127 opx Na0.00Ca0.05Fe''0.16Mg1.76Fe'''0.00Ti0.00Al0.07Si1.96O6 57.0901 0.0131993 1.64359 0.165022 0 5.52225 0 34.2821 0 1.2837 0
3251.00 1316.14 12.815839 32.700436 -167845.717354 4.074364 16.799308 opx Na0.00Ca0.05Fe''0.16Mg1.76Fe'''0.00Ti0.00Al0.06Si1.97O6 57.1564 0.011953 1.5545 0.160127 0 5.52206 0 34.364 0 1.23094 0
3001.00 1314.66 12.334653 31.461332 -161671.051637 3.922600 16.172907 opx Na0.00Ca0.04Fe''0.16Mg1.77Fe'''0.00Ti0.00Al0.06Si1.97O6 57.2238 0.0107502 1.46261 0.154916 0 5.52235 0 34.4434 0 1.18221 0
2751.00 1313.20 11.857759 30.233935 -155541.054378 3.772114 15.551577 opx Na0.00Ca0.04Fe''0.16Mg1.77Fe'''0.00Ti0.00Al0.06Si1.97O6 57.2917 0.00959772 1.36869 0.149408 0 5.52311 0 34.5202 0 1.13734 0
2501.00 1311.75 11.386875 29.022672 -149478.693232 3.623448 14.937612 opx Na0.00Ca0.04Fe''0.16Mg1.77Fe'''0.00Ti0.00Al0.05Si1.97O6 57.3597 0.00850223 1.27359 0.143629 0 5.52431 0 34.5942 0 1.09609 0
2251.00 1310.32 10.923310 27.830905 -143501.656218 3.477016 14.332773 opx Na0.00Ca0.04Fe''0.16Mg1.78Fe'''0.00Ti0.00Al0.05Si1.97O6 57.4273 0.0074697 1.17818 0.137606 0 5.52593 0 34.6653 0 1.05823 0
2001.00 1308.90 10.467864 26.660684 -137621.000192 3.333070 13.738149 opx Na0.00Ca0.04Fe''0.16Mg1.78Fe'''0.00Ti0.00Al0.04Si1.98O6 57.4939 0.00650518 1.08333 0.131368 0 5.52792 0 34.7335 0 1.02345 0
1751.00 1307.51 10.020761 25.512576 -131840.247113 3.191682 13.154077 opx Na0.00Ca0.04Fe''0.16Mg1.78Fe'''0.00Ti0.00Al0.04Si1.98O6 57.5593 0.00561248 0.989885 0.124942 0 5.53024 0 34.7985 0 0.991464 0
1501.00 1306.13 9.581612 24.385568 -126154.821984 3.052729 12.580081 opx Na0.00Ca0.04Fe''0.16Mg1.79Fe'''0.00Ti0.00Al0.04Si1.98O6 57.6229 0.00479407 0.898582 0.118357 0 5.53283 0 34.8606 0 0.961951 0
1251.00 1304.76 9.149384 23.277001 -120551.631831 2.915882 12.014838 opx Na0.00Ca0.03Fe''0.16Mg1.79Fe'''0.00Ti0.00Al0.03Si1.98O6 57.6845 0.00405101 0.810077 0.111638 0 5.53562 0 34.9196 0 0.934602 0
1001.00 1303.40 8.722361 22.182472 -115008.519054 2.780596 11.456123 opx Na0.00Ca0.03Fe''0.16Mg1.79Fe'''0.00Ti0.00Al0.03Si1.98O6 57.7436 0.00338301 0.724921 0.104807 0 5.53855 0 34.9756 0 0.909111 0
751.00 1302.04 8.298070 21.095653 -109493.262168 2.646084 10.900713 opx Na0.00Ca0.03Fe''0.16Mg1.79Fe'''0.00Ti0.00Al0.03Si1.99O6 57.8003 0.00278857 0.643555 0.0978827 0 5.54154 0 35.0288 0 0.885179 0
501.00 1300.68 7.873144 20.007940 -103961.701378 2.511275 10.344205 opx Na0.00Ca0.03Fe''0.16Mg1.80Fe'''0.00Ti0.00Al0.02Si1.99O6 57.8542 0.00226514 0.566317 0.0908801 0 5.54451 0 35.0793 0 0.862515 0
251.00 1299.30 7.443068 18.907820 -98354.373888 2.374730 9.780681 opx Na0.00Ca0.03Fe''0.16Mg1.80Fe'''0.00Ti0.00Al0.02Si1.99O6 57.9053 0.0018093 0.493453 0.0838098 0 5.54736 0 35.1274 0 0.840827 0
1.00 1297.88 7.001739 17.779758 -92590.651128 2.234502 9.202133 opx Na0.00Ca0.03Fe''0.16Mg1.80Fe'''0.00Ti0.00Al0.02Si1.99O6 57.9537 0.00141704 0.425127 0.076678 0 5.54998 0 35.1733 0 0.819817 0

clinopyroxene_0 thermodynamic data and composition:
Pressure Temperature mass S H V Cp structure formula SiO2 TiO2 Al2O3 Fe2O3 Cr2O3 FeO MnO MgO NiO CaO Na2O
7251.00 1339.40 0.002106 0.005247 -26.962801 0.000664 0.002600 cpx Na0.00Ca0.64Fe''0.12Mg1.16Fe'''0.01Ti0.00Al0.15Si1.92O6 53.6456 0.068574 3.52325 0.292752 0 4.05346 0 21.804 0 16.611 0.00138835

spinel_0 thermodynamic data and composition:
Pressure Temperature mass S H V Cp formula SiO2 TiO2 Al2O3 Fe2O3 Cr2O3 FeO MnO MgO NiO CaO Na2O
7251.00 1339.40 1.621989 3.806505 -16894.393704 0.409289 1.884287 Fe''0.17Mg0.83Fe'''0.06Al1.18Cr0.75Ti0.01O4 0 0.238618 35.5691 2.86383 34.0333 7.39528 0 19.8999 0 0 0
7001.00 1338.01 1.582112 3.703264 -16373.288581 0.398174 1.832163 Fe''0.17Mg0.83Fe'''0.06Al1.15Cr0.78Ti0.00O4 0 0.229459 34.7867 2.88802 34.8754 7.42799 0 19.7925 0 0 0
6751.00 1336.62 1.542548 3.600796 -15855.366153 0.387141 1.780419 Fe''0.18Mg0.83Fe'''0.06Al1.13Cr0.80Ti0.00O4 0 0.221769 33.9684 2.91345 35.7521 7.46481 0 19.6795 0 0 0
6501.00 1335.19 1.503238 3.498940 -15339.938108 0.376174 1.728979 Fe''0.18Mg0.83Fe'''0.06Al1.11Cr0.82Ti0.00O4 0 0.215295 33.1112 2.94035 36.6667 7.50602 0 19.5604 0 0 0
6251.00 1333.76 1.464578 3.398712 -14832.349546 0.365385 1.678361 Fe''0.18Mg0.82Fe'''0.06Al1.08Cr0.85Ti0.00O4 0 0.20945 32.2227 2.96842 37.6124 7.55122 0 19.4358 0 0 0
6001.00 1332.32 1.426754 3.300589 -14335.135875 0.354825 1.628809 Fe''0.18Mg0.82Fe'''0.06Al1.05Cr0.87Ti0.00O4 0 0.20394 31.3066 2.9975 38.5857 7.60032 0 19.3059 0 0 0
5751.00 1330.88 1.389723 3.204456 -13847.754994 0.344482 1.580266 Fe''0.18Mg0.82Fe'''0.07Al1.03Cr0.90Ti0.00O4 0 0.198723 30.3612 3.02761 39.5883 7.65366 0 19.1705 0 0 0
5501.00 1329.43 1.353460 3.110242 -13369.907022 0.334350 1.532698 Fe''0.19Mg0.82Fe'''0.07Al1.00Cr0.93Ti0.00O4 0 0.193761 29.3853 3.05879 40.6214 7.7116 0 19.0291 0 0 0
5251.00 1327.97 1.317962 3.017929 -12901.560947 0.324427 1.486099 Fe''0.19Mg0.82Fe'''0.07Al0.97Cr0.96Ti0.00O4 0 0.189017 28.3782 3.09102 41.6859 7.77451 0 18.8813 0 0 0
5001.00 1326.51 1.283245 2.927557 -12442.976662 0.314718 1.440489 Fe''0.19Mg0.81Fe'''0.07Al0.94Cr0.99Ti0.00O4 0 0.184457 27.3398 3.12428 42.7818 7.84275 0 18.727 0 0 0
4751.00 1325.04 1.249350 2.839222 -11994.717208 0.305234 1.395920 Fe''0.19Mg0.81Fe'''0.07Al0.91Cr1.02Ti0.00O4 0 0.180047 26.2708 3.15852 43.9082 7.91663 0 18.5658 0 0 0
4501.00 1323.56 1.216337 2.753078 -11557.644656 0.295992 1.352472 Fe''0.20Mg0.81Fe'''0.07Al0.87Cr1.05Ti0.00O4 0 0.175756 25.1731 3.19363 45.0632 7.99642 0 18.398 0 0 0
4251.00 1322.07 1.184290 2.669334 -11132.892522 0.287015 1.310252 Fe''0.20Mg0.80Fe'''0.07Al0.84Cr1.08Ti0.00O4 0 0.171551 24.0498 3.22947 46.2433 8.08229 0 18.2235 0 0 0
4001.00 1320.58 1.153306 2.588237 -10721.809051 0.278332 1.269386 Fe''0.20Mg0.80Fe'''0.07Al0.80Cr1.12Ti0.00O4 0 0.167401 22.9055 3.26585 47.444 8.17428 0 18.043 0 0 0
