Title: Depleted MORB Mantle of Workmann & Hart 2005

Phase Masses:
Pressure Temperature mass liquid_0 olivine_0 garnet_0 orthopyroxene_0 clinopyroxene_0 feldspar_0 spinel_0 
44001.00 1549.89 100.138999 0.706715 58.221979 12.620807 13.996407 13.464123 0.000000 1.128968 
43901.00 1549.67 100.138999 0.703230 58.225029 12.604507 13.996765 13.479051 0.000000 1.130416 
43801.00 1549.45 100.138999 0.699811 58.227996 12.588118 13.997219 13.493976 0.000000 1.131878 
43701.00 1549.22 100.138999 0.696459 58.230878 12.571640 13.997768 13.508900 0.000000 1.133355 
43601.00 1549.00 100.138999 0.693173 58.233676 12.555070 13.998415 13.523821 0.000000 1.134845 
43501.00 1548.77 100.138999 0.689953 58.236389 12.538408 13.999158 13.538740 0.000000 1.136350 
43401.00 1548.55 100.138999 0.686800 58.239017 12.521654 14.000001 13.553657 0.000000 1.137869 
43301.00 1548.32 100.138999 0.683714 58.241561 12.504805 14.000943 13.568572 0.000000 1.139404 
43201.00 1548.10 100.138999 0.680694 58.244019 12.487862 14.001986 13.583485 0.000000 1.140953 
43101.00 1547.87 100.138999 0.677740 58.246392 12.470823 14.003131 13.598395 0.000000 1.142517 
43001.00 1547.64 100.138999 0.674854 58.248679 12.453687 14.004379 13.613304 0.000000 1.144097 
42901.00 1547.42 100.138999 0.672034 58.250879 12.436452 14.005731 13.628210 0.000000 1.145693 
42801.00 1547.19 100.138999 0.669282 58.252994 12.419119 14.007188 13.643113 0.000000 1.147304 
42701.00 1546.96 100.138999 0.666596 58.255021 12.401685 14.008751 13.658014 0.000000 1.148931 
42601.00 1546.73 100.138999 0.663978 58.256962 12.384150 14.010421 13.672913 0.000000 1.150575 
42501.00 1546.50 100.138999 0.661427 58.258815 12.366512 14.012200 13.687810 0.000000 1.152236 
42401.00 1546.27 100.138999 0.658943 58.260581 12.348770 14.014088 13.702704 0.000000 1.153913 
42301.00 1546.04 100.138999 0.656527 58.262258 12.330924 14.016087 13.717596 0.000000 1.155607 
42201.00 1545.81 100.138999 0.654179 58.263848 12.312971 14.018197 13.732485 0.000000 1.157318 
42101.00 1545.58 100.138999 0.651899 58.265348 12.294911 14.020421 13.747373 0.000000 1.159047 
42001.00 1545.35 100.138999 0.649687 58.266760 12.276743 14.022759 13.762257 0.000000 1.160794 
41901.00 1545.12 100.138999 0.647543 58.268082 12.258464 14.025212 13.777139 0.000000 1.162559 
41801.00 1544.88 100.138999 0.645468 58.269314 12.240074 14.027781 13.792019 0.000000 1.164342 
41701.00 1544.65 100.138999 0.643461 58.270457 12.221572 14.030469 13.806897 0.000000 1.166144 
41601.00 1544.42 100.138999 0.641523 58.271508 12.202955 14.033276 13.821772 0.000000 1.167964 
41501.00 1544.18 100.138999 0.639655 58.272469 12.184224 14.036203 13.836645 0.000000 1.169804 
41401.00 1543.95 100.138999 0.637856 58.273338 12.165375 14.039251 13.851515 0.000000 1.171663 
41301.00 1543.71 100.138999 0.636126 58.274116 12.146409 14.042422 13.866384 0.000000 1.173542 
41201.00 1543.48 100.138999 0.634467 58.274801 12.127323 14.045718 13.881250 0.000000 1.175441 
41101.00 1543.24 100.138999 0.632877 58.275394 12.108116 14.049139 13.896113 0.000000 1.177360 
41001.00 1543.01 100.138999 0.631358 58.275893 12.088786 14.052687 13.910975 0.000000 1.179300 
40901.00 1542.77 100.138999 0.629910 58.276299 12.069333 14.056362 13.925835 0.000000 1.181260 
40801.00 1542.53 100.138999 0.628533 58.276611 12.049753 14.060168 13.940692 0.000000 1.183242 
40701.00 1542.29 100.138999 0.627227 58.276828 12.030047 14.064104 13.955548 0.000000 1.185246 
40601.00 1542.06 100.138999 0.625993 58.276950 12.010211 14.068172 13.970401 0.000000 1.187271 
40501.00 1541.82 100.138999 0.624830 58.276977 11.990245 14.072375 13.985253 0.000000 1.189319 
40401.00 1541.58 100.138999 0.623741 58.276907 11.970147 14.076712 14.000103 0.000000 1.191389 
40301.00 1541.34 100.138999 0.622723 58.276741 11.949915 14.081186 14.014951 0.000000 1.193482 
40201.00 1541.10 100.138999 0.621779 58.276478 11.929547 14.085797 14.029798 0.000000 1.195599 
40101.00 1540.86 100.138999 0.620909 58.276118 11.909042 14.090548 14.044643 0.000000 1.197739 
40001.00 1540.61 100.138999 0.620112 58.275659 11.888398 14.095440 14.059487 0.000000 1.199903 
39901.00 1540.37 100.138999 0.619389 58.275101 11.867612 14.100475 14.074330 0.000000 1.202091 
39801.00 1540.13 100.138999 0.618742 58.274445 11.846684 14.105653 14.089172 0.000000 1.204304 
39701.00 1539.89 100.138999 0.618169 58.273688 11.825610 14.110977 14.104013 0.000000 1.206543 
39601.00 1539.64 100.138999 0.617672 58.272831 11.804390 14.116448 14.118852 0.000000 1.208807 
39501.00 1539.40 100.138999 0.617251 58.271873 11.783020 14.122067 14.133692 0.000000 1.211096 
39401.00 1539.16 100.138999 0.616906 58.270813 11.761500 14.127837 14.148531 0.000000 1.213413 
39301.00 1538.91 100.138999 0.616638 58.269651 11.739827 14.133758 14.163369 0.000000 1.215756 
39201.00 1538.66 100.138999 0.616448 58.268386 11.717999 14.139833 14.178208 0.000000 1.218126 
39101.00 1538.42 100.138999 0.616336 58.267017 11.696013 14.146062 14.193047 0.000000 1.220524 
39001.00 1538.17 100.138999 0.616302 58.265544 11.673868 14.152449 14.207886 0.000000 1.222950 
38901.00 1537.92 100.138999 0.616348 58.263966 11.651561 14.158994 14.222726 0.000000 1.225404 
38801.00 1537.68 100.138999 0.616473 58.262283 11.629090 14.165699 14.237566 0.000000 1.227888 
38701.00 1537.43 100.138999 0.616678 58.260494 11.606453 14.172566 14.252408 0.000000 1.230401 
38601.00 1537.18 100.138999 0.616964 58.258597 11.583647 14.179596 14.267251 0.000000 1.232944 
38501.00 1536.93 100.138999 0.617331 58.256593 11.560670 14.186791 14.282096 0.000000 1.235518 
38401.00 1536.68 100.138999 0.617780 58.254481 11.537520 14.194154 14.296942 0.000000 1.238122 
38301.00 1536.43 100.138999 0.618312 58.252259 11.514193 14.201686 14.311791 0.000000 1.240758 
38201.00 1536.18 100.138999 0.618927 58.249928 11.490687 14.209388 14.326643 0.000000 1.243426 
38101.00 1535.93 100.138999 0.619626 58.247486 11.467001 14.217263 14.341498 0.000000 1.246127 
38001.00 1535.67 100.138999 0.620409 58.244932 11.443130 14.225312 14.356355 0.000000 1.248861 
37901.00 1535.42 100.138999 0.621278 58.242267 11.419072 14.233537 14.371217 0.000000 1.251628 
37801.00 1535.17 100.138999 0.622233 58.239488 11.394825 14.241941 14.386083 0.000000 1.254430 
37701.00 1534.91 100.138999 0.623274 58.236596 11.370385 14.250525 14.400953 0.000000 1.257266 
37601.00 1534.66 100.138999 0.624403 58.233589 11.345751 14.259291 14.415828 0.000000 1.260138 
37501.00 1534.40 100.138999 0.625620 58.230467 11.320917 14.268240 14.430709 0.000000 1.263045 
37401.00 1534.15 100.138999 0.626926 58.227228 11.295883 14.277376 14.445596 0.000000 1.265990 
37301.00 1533.89 100.138999 0.628322 58.223872 11.270644 14.286700 14.460489 0.000000 1.268971 
37201.00 1533.63 100.138999 0.629809 58.220399 11.245198 14.296215 14.475389 0.000000 1.271990 
37101.00 1533.38 100.138999 0.631387 58.216806 11.219541 14.305921 14.490296 0.000000 1.275048 
37001.00 1533.12 100.138999 0.633057 58.213094 11.193670 14.315821 14.505211 0.000000 1.278145 
36901.00 1532.86 100.138999 0.634820 58.209260 11.167582 14.325918 14.520135 0.000000 1.281282 
36801.00 1532.60 100.138999 0.636678 58.205306 11.141273 14.336214 14.535069 0.000000 1.284460 
36701.00 1532.34 100.138999 0.638630 58.201228 11.114740 14.346710 14.550012 0.000000 1.287679 
36601.00 1532.08 100.138999 0.640679 58.197027 11.087979 14.357410 14.564965 0.000000 1.290939 
36501.00 1531.81 100.138999 0.642824 58.192702 11.060987 14.368314 14.579930 0.000000 1.294243 
36401.00 1531.55 100.138999 0.645067 58.188251 11.033759 14.379426 14.594907 0.000000 1.297590 
36301.00 1531.29 100.138999 0.647409 58.183673 11.006293 14.390747 14.609896 0.000000 1.300981 
36201.00 1531.03 100.138999 0.649851 58.178968 10.978584 14.402281 14.624899 0.000000 1.304417 
36101.00 1530.76 100.138999 0.652394 58.174134 10.950628 14.414029 14.639915 0.000000 1.307899 
36001.00 1530.50 100.138999 0.655039 58.169170 10.922421 14.425994 14.654947 0.000000 1.311428 
35901.00 1530.23 100.138999 0.657787 58.164076 10.893960 14.438177 14.669995 0.000000 1.315005 
35801.00 1529.96 100.138999 0.660639 58.158849 10.865240 14.450583 14.685059 0.000000 1.318629 
35701.00 1529.70 100.138999 0.663596 58.153490 10.836256 14.463212 14.700142 0.000000 1.322303 
35601.00 1529.43 100.138999 0.666660 58.147996 10.807005 14.476068 14.715242 0.000000 1.326027 
35501.00 1529.16 100.138999 0.669832 58.142368 10.777481 14.489153 14.730362 0.000000 1.329802 
35401.00 1528.89 100.138999 0.673113 58.136602 10.747681 14.502470 14.745503 0.000000 1.333629 
35301.00 1528.62 100.138999 0.676504 58.130699 10.717600 14.516021 14.760666 0.000000 1.337509 
35201.00 1528.35 100.138999 0.680006 58.124658 10.687233 14.529809 14.775851 0.000000 1.341443 
35101.00 1528.08 100.138999 0.683621 58.118476 10.656574 14.543837 14.791060 0.000000 1.345432 
35001.00 1527.80 100.138999 0.687350 58.112152 10.625620 14.558107 14.806294 0.000000 1.349476 
34901.00 1527.53 100.138999 0.691195 58.105686 10.594365 14.572622 14.821554 0.000000 1.353578 
34801.00 1527.26 100.138999 0.695157 58.099076 10.562803 14.587384 14.836841 0.000000 1.357738 
34701.00 1526.98 100.138999 0.699236 58.092321 10.530930 14.602398 14.852157 0.000000 1.361957 
34601.00 1526.71 100.138999 0.703436 58.085419 10.498740 14.617665 14.867504 0.000000 1.366236 
34501.00 1526.43 100.138999 0.707757 58.078369 10.466228 14.633188 14.882881 0.000000 1.370576 
34401.00 1526.15 100.138999 0.712200 58.071169 10.433388 14.648971 14.898291 0.000000 1.374979 
34301.00 1525.87 100.138999 0.716768 58.063819 10.400214 14.665016 14.913736 0.000000 1.379445 
34201.00 1525.59 100.138999 0.721462 58.056317 10.366701 14.681327 14.929216 0.000000 1.383977 
34101.00 1525.31 100.138999 0.726283 58.048660 10.332841 14.697906 14.944734 0.000000 1.388574 
34001.00 1525.03 100.138999 0.731233 58.040849 10.298630 14.714757 14.960290 0.000000 1.393240 
33901.00 1524.75 100.138999 0.736314 58.032881 10.264061 14.731883 14.975887 0.000000 1.397973 
33801.00 1524.47 100.138999 0.741528 58.024754 10.229127 14.749287 14.991526 0.000000 1.402777 
33701.00 1524.19 100.138999 0.746876 58.016468 10.193822 14.766972 15.007208 0.000000 1.407652 
33601.00 1523.90 100.138999 0.752360 58.008020 10.158139 14.784942 15.022937 0.000000 1.412600 
33501.00 1523.62 100.138999 0.757982 57.999409 10.122072 14.803201 15.038713 0.000000 1.417623 
33401.00 1523.33 100.138999 0.763744 57.990633 10.085613 14.821751 15.054538 0.000000 1.422720 
33301.00 1523.04 100.138999 0.769648 57.981691 10.048754 14.840595 15.070415 0.000000 1.427895 
33201.00 1522.75 100.138999 0.775695 57.972580 10.011490 14.859739 15.086346 0.000000 1.433149 
33101.00 1522.46 100.138999 0.781889 57.963299 9.973812 14.879185 15.102332 0.000000 1.438483 
33001.00 1522.17 100.138999 0.788230 57.953847 9.935712 14.898937 15.118375 0.000000 1.443899 
32901.00 1521.88 100.138999 0.794721 57.944221 9.897183 14.918998 15.134479 0.000000 1.449398 
32801.00 1521.59 100.138999 0.801364 57.934419 9.858216 14.939373 15.150644 0.000000 1.454983 
32701.00 1521.30 100.138999 0.808161 57.924440 9.818804 14.960066 15.166874 0.000000 1.460654 
32601.00 1521.00 100.138999 0.815115 57.914282 9.778938 14.981079 15.183172 0.000000 1.466414 
32501.00 1520.71 100.138999 0.822227 57.903942 9.738609 15.002418 15.199538 0.000000 1.472264 
32401.00 1520.41 100.138999 0.829501 57.893419 9.697809 15.024087 15.215977 0.000000 1.478206 
32301.00 1520.12 100.138999 0.836938 57.882710 9.656529 15.046089 15.232490 0.000000 1.484243 
32201.00 1519.82 100.138999 0.844542 57.871814 9.614758 15.068429 15.249080 0.000000 1.490375 
32101.00 1519.52 100.138999 0.852313 57.860728 9.572489 15.091112 15.265751 0.000000 1.496606 
32001.00 1519.22 100.138999 0.860256 57.849450 9.529711 15.114141 15.282505 0.000000 1.502937 
31901.00 1518.92 100.138999 0.868373 57.837979 9.486414 15.137521 15.299345 0.000000 1.509369 
31801.00 1518.61 100.138999 0.876665 57.826310 9.442588 15.161256 15.316273 0.000000 1.515906 
31701.00 1518.31 100.138999 0.885137 57.814443 9.398223 15.185352 15.333294 0.000000 1.522550 
31601.00 1518.00 100.138999 0.893791 57.802375 9.353307 15.209813 15.350410 0.000000 1.529302 
31501.00 1517.70 100.138999 0.902629 57.790104 9.307832 15.234644 15.367625 0.000000 1.536164 
31401.00 1517.39 100.138999 0.911655 57.777626 9.261784 15.259850 15.384943 0.000000 1.543141 
31301.00 1517.08 100.138999 0.920872 57.764940 9.215153 15.285436 15.402365 0.000000 1.550232 
31201.00 1516.77 100.138999 0.930282 57.752043 9.167926 15.311407 15.419897 0.000000 1.557442 
31101.00 1516.46 100.138999 0.939890 57.738932 9.120093 15.337769 15.437543 0.000000 1.564773 
31001.00 1516.15 100.138999 0.949697 57.725604 9.071640 15.364526 15.455305 0.000000 1.572227 
30901.00 1515.83 100.138999 0.959707 57.712058 9.022555 15.391685 15.473187 0.000000 1.579807 
30801.00 1515.52 100.138999 0.969924 57.698289 8.972825 15.419251 15.491195 0.000000 1.587515 
30701.00 1515.20 100.138999 0.980351 57.684295 8.922437 15.447229 15.509332 0.000000 1.595355 
30601.00 1514.88 100.138999 0.990992 57.670073 8.871377 15.475626 15.527602 0.000000 1.603330 
30501.00 1514.56 100.138999 1.001849 57.655620 8.819631 15.504447 15.546010 0.000000 1.611441 
30401.00 1514.24 100.138535 1.012462 57.640933 8.767187 15.533699 15.564561 0.000000 1.619693 
30301.00 1513.92 100.127347 1.012536 57.626003 8.714068 15.563378 15.583274 0.000000 1.628088 
30201.00 1513.60 100.115971 1.012610 57.610827 8.660261 15.593489 15.602155 0.000000 1.636630 
30101.00 1513.27 100.104405 1.012684 57.595400 8.605751 15.624039 15.621210 0.000000 1.645321 
30001.00 1512.95 100.092648 1.012758 57.579721 8.550526 15.655033 15.640446 0.000000 1.654165 
29901.00 1512.62 100.080697 1.012832 57.563785 8.494569 15.686478 15.659868 0.000000 1.663165 
29801.00 1512.29 100.068550 1.012906 57.547589 8.437865 15.718381 15.679483 0.000000 1.672325 
29701.00 1511.96 100.056206 1.012981 57.531130 8.380400 15.750747 15.699299 0.000000 1.681649 
29601.00 1511.63 100.043662 1.013055 57.514402 8.322157 15.783584 15.719323 0.000000 1.691140 
29501.00 1511.30 100.030916 1.013130 57.497404 8.263121 15.816897 15.739561 0.000000 1.700803 
29401.00 1510.96 100.017965 1.013205 57.480130 8.203273 15.850696 15.760021 0.000000 1.710641 
29301.00 1510.63 100.004809 1.013280 57.462577 8.142597 15.884985 15.780712 0.000000 1.720658 
29201.00 1510.29 99.991444 1.013355 57.444740 8.081076 15.919773 15.801642 0.000000 1.730858 
29101.00 1509.95 99.977868 1.013430 57.426615 8.018690 15.955068 15.822818 0.000000 1.741246 
29001.00 1509.61 99.964079 1.013505 57.408199 7.955421 15.990876 15.844250 0.000000 1.751827 
28901.00 1509.27 99.950074 1.013581 57.389486 7.891250 16.027205 15.865947 0.000000 1.762604 
28801.00 1508.92 99.935851 1.013657 57.370471 7.826157 16.064065 15.887918 0.000000 1.773583 
28701.00 1508.58 99.921409 1.013733 57.351151 7.760122 16.101462 15.910172 0.000000 1.784769 
28601.00 1508.23 99.906743 1.013809 57.331519 7.693123 16.139406 15.932720 0.000000 1.796166 
28501.00 1507.88 99.891852 1.013886 57.311572 7.625139 16.177904 15.955572 0.000000 1.807779 
28401.00 1507.54 99.876734 1.013963 57.291303 7.556147 16.216967 15.978738 0.000000 1.819615 
28301.00 1507.18 99.861385 1.014040 57.270709 7.486125 16.256603 16.002230 0.000000 1.831678 
28201.00 1506.83 99.845803 1.014117 57.249782 7.415049 16.296821 16.026060 0.000000 1.843974 
28101.00 1506.48 99.829986 1.014195 57.228518 7.342895 16.337631 16.050238 0.000000 1.856509 
28001.00 1506.12 99.813930 1.014273 57.206910 7.269636 16.379043 16.074778 0.000000 1.869290 
27901.00 1505.76 99.797634 1.014351 57.184953 7.195249 16.421068 16.099692 0.000000 1.882321 
27801.00 1505.40 99.781094 1.014430 57.162641 7.119705 16.463714 16.124994 0.000000 1.895611 
27701.00 1505.04 99.764308 1.014508 57.139967 7.042977 16.506995 16.150696 0.000000 1.909164 
27601.00 1504.68 99.747272 1.014588 57.116925 6.965037 16.550919 16.176815 0.000000 1.922989 
27501.00 1504.31 99.729984 1.014667 57.093507 6.885855 16.595499 16.203363 0.000000 1.937092 
27401.00 1503.94 99.712441 1.014747 57.069707 6.805401 16.640747 16.230356 0.000000 1.951482 
27301.00 1503.58 99.694640 1.014828 57.045518 6.723644 16.686675 16.257811 0.000000 1.966164 
27201.00 1503.21 99.676578 1.014908 57.020932 6.640552 16.733294 16.285744 0.000000 1.981148 
27101.00 1502.83 99.658252 1.014990 56.995942 6.556090 16.780618 16.314172 0.000000 1.996441 
27001.00 1502.46 99.639659 1.015071 56.970539 6.470225 16.828660 16.343113 0.000000 2.012051 
26901.00 1502.08 99.620796 1.015153 56.944716 6.382920 16.877433 16.372585 0.000000 2.027988 
26801.00 1501.70 99.601660 1.015235 56.918464 6.294139 16.926952 16.402608 0.000000 2.044261 
26701.00 1501.32 99.582247 1.015318 56.891773 6.203844 16.977231 16.433201 0.000000 2.060879 
26601.00 1500.94 99.562554 1.015401 56.864636 6.111994 17.028286 16.464386 0.000000 2.077851 
26501.00 1500.55 99.542579 1.015485 56.837042 6.018550 17.080130 16.496183 0.000000 2.095188 
26401.00 1500.16 99.522317 1.015569 56.808983 5.923467 17.132781 16.528617 0.000000 2.112900 
26301.00 1499.78 99.501766 1.015653 56.780447 5.826704 17.186255 16.561709 0.000000 2.130998 
26201.00 1499.38 99.480922 1.015738 56.751424 5.728213 17.240569 16.595484 0.000000 2.149493 
26101.00 1498.99 99.459781 1.015823 56.721904 5.627947 17.295741 16.629969 0.000000 2.168397 
26001.00 1498.59 99.438341 1.015909 56.691876 5.525859 17.351788 16.665188 0.000000 2.187721 
25901.00 1498.19 99.416598 1.015995 56.661326 5.421896 17.408730 16.701171 0.000000 2.207480 
25801.00 1497.79 99.394549 1.016082 56.630244 5.316006 17.466586 16.737946 0.000000 2.227685 
25701.00 1497.39 99.372189 1.016168 56.598618 5.208134 17.525377 16.775542 0.000000 2.248350 
25601.00 1496.98 99.349516 1.016255 56.566433 5.098223 17.585123 16.813992 0.000000 2.269490 
25501.00 1496.57 99.326526 1.016343 56.533676 4.986214 17.645846 16.853327 0.000000 2.291119 
25401.00 1496.16 99.303215 1.016431 56.500333 4.872046 17.707569 16.893584 0.000000 2.313253 
25301.00 1495.75 99.279580 1.016519 56.466390 4.755655 17.770314 16.934796 0.000000 2.335907 
25201.00 1495.33 99.255617 1.016607 56.431830 4.636973 17.834107 16.977002 0.000000 2.359099 
25101.00 1494.91 99.231324 1.016696 56.396639 4.515932 17.898972 17.020240 0.000000 2.382845 
25001.00 1494.49 99.206695 1.016784 56.360800 4.392459 17.964936 17.064552 0.000000 2.407163 
24901.00 1494.07 99.181728 1.016873 56.324295 4.266480 18.032025 17.109981 0.000000 2.432074 
24801.00 1493.64 99.156420 1.016962 56.287106 4.137916 18.100268 17.156571 0.000000 2.457596 
24701.00 1493.21 99.130766 1.017050 56.249215 4.006686 18.169694 17.204370 0.000000 2.483749 
24601.00 1492.77 99.104763 1.017139 56.210602 3.872704 18.240334 17.253427 0.000000 2.510556 
24501.00 1492.34 99.078408 1.017228 56.171247 3.735881 18.312219 17.303794 0.000000 2.538039 
24401.00 1491.90 99.051697 1.017316 56.131127 3.596124 18.385383 17.355525 0.000000 2.566222 
24301.00 1491.45 99.024628 1.017404 56.090222 3.453338 18.459859 17.408677 0.000000 2.595129 
24201.00 1491.01 98.997196 1.017491 56.048507 3.307419 18.535683 17.463311 0.000000 2.624785 
24101.00 1490.56 98.969399 1.017578 56.005958 3.158263 18.612893 17.519489 0.000000 2.655219 
24001.00 1490.10 98.941234 1.017664 55.962549 3.005759 18.691527 17.577278 0.000000 2.686457 
23901.00 1489.65 98.912697 1.017749 55.918254 2.849790 18.771627 17.636747 0.000000 2.718531 
23801.00 1489.19 98.883786 1.017833 55.873045 2.690234 18.853233 17.697971 0.000000 2.751470 
23701.00 1488.72 98.854498 1.017915 55.826892 2.526966 18.936391 17.761026 0.000000 2.785308 
23601.00 1488.26 98.824831 1.017997 55.779764 2.359851 19.021146 17.825995 0.000000 2.820078 
