Title: Depleted MORB Mantle of Workmann & Hart 2005

Liquid Composition:
Pressure Temperature mass SiO2 TiO2 Al2O3 Fe2O3 Cr2O3 FeO MnO MgO NiO CaO Na2O 
44001.00 1317.20 0.000000 ---
43901.00 1317.01 0.000000 ---
43801.00 1316.82 0.000000 ---
43701.00 1316.62 0.000000 ---
43601.00 1316.43 0.000000 ---
43501.00 1316.24 0.000000 ---
43401.00 1316.04 0.000000 ---
43301.00 1315.85 0.000000 ---
43201.00 1315.65 0.000000 ---
43101.00 1315.46 0.000000 ---
43001.00 1315.27 0.000000 ---
42901.00 1315.07 0.000000 ---
42801.00 1314.88 0.000000 ---
42701.00 1314.69 0.000000 ---
42601.00 1314.49 0.000000 ---
42501.00 1314.30 0.000000 ---
42401.00 1314.11 0.000000 ---
42301.00 1313.91 0.000000 ---
42201.00 1313.72 0.000000 ---
42101.00 1313.53 0.000000 ---
42001.00 1313.33 0.000000 ---
41901.00 1313.14 0.000000 ---
41801.00 1312.94 0.000000 ---
41701.00 1312.75 0.000000 ---
41601.00 1312.56 0.000000 ---
41501.00 1312.36 0.000000 ---
41401.00 1312.17 0.000000 ---
41301.00 1311.97 0.000000 ---
41201.00 1311.78 0.000000 ---
41101.00 1311.59 0.000000 ---
41001.00 1311.39 0.000000 ---
40901.00 1311.20 0.000000 ---
40801.00 1311.00 0.000000 ---
40701.00 1310.81 0.000000 ---
40601.00 1310.62 0.000000 ---
40501.00 1310.42 0.000000 ---
40401.00 1310.23 0.000000 ---
40301.00 1310.03 0.000000 ---
40201.00 1309.84 0.000000 ---
40101.00 1309.64 0.000000 ---
40001.00 1309.45 0.000000 ---
39901.00 1309.26 0.000000 ---
39801.00 1309.06 0.000000 ---
39701.00 1308.87 0.000000 ---
39601.00 1308.67 0.000000 ---
39501.00 1308.48 0.000000 ---
39401.00 1308.28 0.000000 ---
39301.00 1308.09 0.000000 ---
39201.00 1307.89 0.000000 ---
39101.00 1307.70 0.000000 ---
39001.00 1307.50 0.000000 ---
38901.00 1307.31 0.000000 ---
38801.00 1307.11 0.000000 ---
38701.00 1306.92 0.000000 ---
38601.00 1306.72 0.000000 ---
38501.00 1306.53 0.000000 ---
38401.00 1306.33 0.000000 ---
38301.00 1306.14 0.000000 ---
38201.00 1305.94 0.000000 ---
38101.00 1305.75 0.000000 ---
38001.00 1305.55 0.000000 ---
37901.00 1305.36 0.000000 ---
37801.00 1305.16 0.000000 ---
37701.00 1304.97 0.000000 ---
37601.00 1304.77 0.000000 ---
37501.00 1304.57 0.000000 ---
37401.00 1304.38 0.000000 ---
37301.00 1304.18 0.000000 ---
37201.00 1303.99 0.000000 ---
37101.00 1303.79 0.000000 ---
37001.00 1303.60 0.000000 ---
36901.00 1303.40 0.000000 ---
36801.00 1303.20 0.000000 ---
36701.00 1303.01 0.000000 ---
36601.00 1302.81 0.000000 ---
36501.00 1302.61 0.000000 ---
36401.00 1302.42 0.000000 ---
36301.00 1302.22 0.000000 ---
36201.00 1302.03 0.000000 ---
36101.00 1301.83 0.000000 ---
36001.00 1301.63 0.000000 ---
35901.00 1301.44 0.000000 ---
35801.00 1301.24 0.000000 ---
35701.00 1301.04 0.000000 ---
35601.00 1300.84 0.000000 ---
35501.00 1300.65 0.000000 ---
35401.00 1300.45 0.000000 ---
35301.00 1300.25 0.000000 ---
35201.00 1300.06 0.000000 ---
35101.00 1299.86 0.000000 ---
35001.00 1299.66 0.000000 ---
34901.00 1299.46 0.000000 ---
34801.00 1299.27 0.000000 ---
34701.00 1299.07 0.000000 ---
34601.00 1298.87 0.000000 ---
34501.00 1298.67 0.000000 ---
34401.00 1298.47 0.000000 ---
34301.00 1298.28 0.000000 ---
34201.00 1298.08 0.000000 ---
34101.00 1297.88 0.000000 ---
34001.00 1297.68 0.000000 ---
33901.00 1297.48 0.000000 ---
33801.00 1297.28 0.000000 ---
33701.00 1297.09 0.000000 ---
33601.00 1296.89 0.000000 ---
33501.00 1296.69 0.000000 ---
33401.00 1296.49 0.000000 ---
33301.00 1296.29 0.000000 ---
33201.00 1296.09 0.000000 ---
33101.00 1295.89 0.000000 ---
33001.00 1295.69 0.000000 ---
32901.00 1295.49 0.000000 ---
32801.00 1295.29 0.000000 ---
32701.00 1295.09 0.000000 ---
32601.00 1294.89 0.000000 ---
32501.00 1294.69 0.000000 ---
32401.00 1294.49 0.000000 ---
32301.00 1294.29 0.000000 ---
32201.00 1294.09 0.000000 ---
32101.00 1293.89 0.000000 ---
32001.00 1293.69 0.000000 ---
31901.00 1293.49 0.000000 ---
31801.00 1293.29 0.000000 ---
31701.00 1293.09 0.000000 ---
31601.00 1292.88 0.000000 ---
31501.00 1292.68 0.000000 ---
31401.00 1292.48 0.000000 ---
31301.00 1292.28 0.000000 ---
31201.00 1292.08 0.000000 ---
31101.00 1291.87 0.000000 ---
31001.00 1291.67 0.000000 ---
30901.00 1291.47 0.000000 ---
30801.00 1291.27 0.000000 ---
30701.00 1291.06 0.000000 ---
30601.00 1290.86 0.000000 ---
30501.00 1290.66 0.000000 ---
30401.00 1290.45 0.000000 ---
30301.00 1290.25 0.000000 ---
30201.00 1290.05 0.000000 ---
30101.00 1289.84 0.000000 ---
30001.00 1289.64 0.000000 ---
29901.00 1289.43 0.000000 ---
29801.00 1289.23 0.000000 ---
29701.00 1289.03 0.000000 ---
29601.00 1288.82 0.000000 ---
29501.00 1288.62 0.000000 ---
29401.00 1288.41 0.000000 ---
29301.00 1288.20 0.000000 ---
29201.00 1288.00 0.000000 ---
29101.00 1287.79 0.000000 ---
29001.00 1287.59 0.000000 ---
28901.00 1287.38 0.000000 ---
28801.00 1287.17 0.000000 ---
28701.00 1286.97 0.000000 ---
28601.00 1286.76 0.000000 ---
28501.00 1286.55 0.000000 ---
28401.00 1286.34 0.000000 ---
28301.00 1286.14 0.000000 ---
28201.00 1285.93 0.000000 ---
28101.00 1285.72 0.000000 ---
28001.00 1285.51 0.000000 ---
27901.00 1285.30 0.000000 ---
27801.00 1285.09 0.000000 ---
27701.00 1284.88 0.000000 ---
27601.00 1284.67 0.000000 ---
27501.00 1284.46 0.000000 ---
27401.00 1284.25 0.000000 ---
27301.00 1284.04 0.000000 ---
27201.00 1283.83 0.000000 ---
27101.00 1283.62 0.000000 ---
27001.00 1283.40 0.000000 ---
26901.00 1283.19 0.000000 ---
26801.00 1282.98 0.000000 ---
26701.00 1282.77 0.000000 ---
26601.00 1282.55 0.000000 ---
26501.00 1282.34 0.000000 ---
26401.00 1282.12 0.000000 ---
26301.00 1281.91 0.000000 ---
26201.00 1281.70 0.000000 ---
26101.00 1281.48 0.000000 ---
26001.00 1281.26 0.000000 ---
25901.00 1281.05 0.000000 ---
25801.00 1280.83 0.000000 ---
25701.00 1280.61 0.000000 ---
25601.00 1280.40 0.000000 ---
25501.00 1280.18 0.000000 ---
25401.00 1279.96 0.000000 ---
25301.00 1279.74 0.000000 ---
25201.00 1279.52 0.000000 ---
25101.00 1279.30 0.000000 ---
25001.00 1279.08 0.000000 ---
24901.00 1278.86 0.000000 ---
24801.00 1278.64 0.000000 ---
24701.00 1278.42 0.000000 ---
24601.00 1278.20 0.000000 ---
24501.00 1277.97 0.000000 ---
24401.00 1277.75 0.000000 ---
24301.00 1277.53 0.000000 ---
24201.00 1277.30 0.000000 ---
24101.00 1277.08 0.000000 ---
24001.00 1276.85 0.000000 ---
23901.00 1276.62 0.000000 ---
23801.00 1276.40 0.000000 ---
23701.00 1276.17 0.000000 ---
23601.00 1275.94 0.000000 ---
23501.00 1275.71 0.000000 ---
23401.00 1275.48 0.000000 ---
23301.00 1275.25 0.000000 ---
23201.00 1275.02 0.000000 ---
23101.00 1274.79 0.000000 ---
23001.00 1274.55 0.000000 ---
22901.00 1274.32 0.000000 ---
22801.00 1274.08 0.000000 ---
22701.00 1273.85 0.000000 ---
22601.00 1273.61 0.000000 ---
22501.00 1273.37 0.000000 ---
22401.00 1273.14 0.000000 ---
22301.00 1272.90 0.000000 ---
22201.00 1272.66 0.000000 ---
22101.00 1272.42 0.000000 ---
22001.00 1272.17 0.000000 ---
21901.00 1271.93 0.000000 ---
21801.00 1271.69 0.000000 ---
21701.00 1271.44 0.000000 ---
21601.00 1271.19 0.000000 ---
21501.00 1270.94 0.000000 ---
21401.00 1270.70 0.000000 ---
21301.00 1270.45 0.000000 ---
21201.00 1270.19 0.000000 ---
21101.00 1269.94 0.000000 ---
21001.00 1269.69 0.000000 ---
20901.00 1269.43 0.000000 ---
20801.00 1269.17 0.000000 ---
20701.00 1268.91 0.000000 ---
20601.00 1268.65 0.000000 ---
20501.00 1268.39 0.000000 ---
20401.00 1268.12 0.000000 ---
20301.00 1267.86 0.000000 ---
20201.00 1267.59 0.000000 ---
20101.00 1267.32 0.000000 ---
20001.00 1267.05 0.000000 ---
19901.00 1266.77 0.000000 ---
19801.00 1266.50 0.000000 ---
19701.00 1266.22 0.000000 ---
19601.00 1265.94 0.000000 ---
19501.00 1265.66 0.000000 ---
19401.00 1265.37 0.000000 ---
19301.00 1265.08 0.000000 ---
19201.00 1264.79 0.000000 ---
19101.00 1264.50 0.000000 ---
19001.00 1264.20 0.000000 ---
18901.00 1263.90 0.000000 ---
18801.00 1263.60 0.000000 ---
18701.00 1263.29 0.000000 ---
18601.00 1262.99 0.000000 ---
18501.00 1262.81 0.000000 ---
18401.00 1262.63 0.000000 ---
18301.00 1262.45 0.000000 ---
18201.00 1262.27 0.000000 ---
18101.00 1262.09 0.000000 ---
18001.00 1261.91 0.000000 ---
17901.00 1261.73 0.000000 ---
17801.00 1261.55 0.000000 ---
17701.00 1261.37 0.000000 ---
17601.00 1261.19 0.000000 ---
17501.00 1261.01 0.000000 ---
17401.00 1260.83 0.000000 ---
17301.00 1260.65 0.000000 ---
17201.00 1260.47 0.000000 ---
17101.00 1260.29 0.000000 ---
17001.00 1260.11 0.000000 ---
16901.00 1259.93 0.000000 ---
16801.00 1259.75 0.000000 ---
16701.00 1259.57 0.000000 ---
16601.00 1259.39 0.000000 ---
16501.00 1259.21 0.000000 ---
16401.00 1259.03 0.000000 ---
16301.00 1258.85 0.000000 ---
16201.00 1258.67 0.000000 ---
16101.00 1258.49 0.000000 ---
16001.00 1258.31 0.000000 ---
15901.00 1258.13 0.000000 ---
15801.00 1257.95 0.000000 ---
15701.00 1257.77 0.000000 ---
15601.00 1257.60 0.000000 ---
15501.00 1257.42 0.000000 ---
15401.00 1257.24 0.000000 ---
15301.00 1257.06 0.000000 ---
15201.00 1256.88 0.000000 ---
15101.00 1256.70 0.000000 ---
15001.00 1256.52 0.000000 ---
14901.00 1256.34 0.000000 ---
14801.00 1256.16 0.000000 ---
14701.00 1255.98 0.000000 ---
14601.00 1255.80 0.000000 ---
14501.00 1255.62 0.000000 ---
14401.00 1255.44 0.000000 ---
14301.00 1255.26 0.000000 ---
14201.00 1255.08 0.000000 ---
14101.00 1254.90 0.000000 ---
14001.00 1254.72 0.000000 ---
13901.00 1254.54 0.000000 ---
13801.00 1254.36 0.000000 ---
13701.00 1254.18 0.000000 ---
13601.00 1254.00 0.000000 ---
13501.00 1253.82 0.000000 ---
13401.00 1253.64 0.000000 ---
13301.00 1253.46 0.000000 ---
13201.00 1253.28 0.000000 ---
13101.00 1253.10 0.000000 ---
13001.00 1252.92 0.000000 ---
12901.00 1252.74 0.000000 ---
12801.00 1252.56 0.000000 ---
12701.00 1252.38 0.000000 ---
12601.00 1252.20 0.000000 ---
12501.00 1252.03 0.000000 ---
12401.00 1251.85 0.000000 ---
12301.00 1251.67 0.000000 ---
12201.00 1251.49 0.000000 ---
12101.00 1251.31 0.000000 ---
12001.00 1251.13 0.000000 ---
11901.00 1250.95 0.000000 ---
11801.00 1250.77 0.000000 ---
11701.00 1250.59 0.000000 ---
11601.00 1250.41 0.000000 ---
11501.00 1250.17 0.016061 53.3468 0.603326 18.9747 0.0791805 0.300499 3.89452 0.0138006 7.53515 0.00745563 4.04357 11.201
11401.00 1249.84 0.056173 53.4079 0.602267 18.9851 0.0803595 0.295501 3.88825 0.0136101 7.5364 0.00734974 4.09646 11.0868
11301.00 1249.51 0.096931 53.4683 0.601255 18.9951 0.0815701 0.290547 3.88219 0.013421 7.53794 0.00724471 4.15025 10.9721
11201.00 1249.17 0.138361 53.5281 0.60029 19.0049 0.0828138 0.285639 3.87633 0.0132334 7.53979 0.00714055 4.20497 10.8569
11101.00 1248.84 0.180491 53.5871 0.599373 19.0142 0.0840915 0.280776 3.87069 0.0130473 7.54194 0.00703725 4.26063 10.741
11001.00 1248.50 0.223348 53.6455 0.598504 19.0233 0.0854048 0.275959 3.86526 0.0128626 7.5444 0.00693481 4.31726 10.6247
10901.00 1248.16 0.266965 53.7031 0.597684 19.0319 0.086755 0.271187 3.86005 0.0126794 7.54717 0.00683322 4.37486 10.5077
10801.00 1247.83 0.311371 53.76 0.596913 19.0403 0.0881434 0.266461 3.85507 0.0124976 7.55026 0.00673249 4.43347 10.3902
10701.00 1247.48 0.356602 53.8161 0.596193 19.0482 0.0895716 0.26178 3.85031 0.0123173 7.55366 0.00663262 4.4931 10.2721
10601.00 1247.14 0.402692 53.8714 0.595523 19.0558 0.0910411 0.257145 3.84578 0.0121384 7.55739 0.00653359 4.55377 10.1534
10501.00 1246.79 0.449679 53.9259 0.594905 19.063 0.0925537 0.252556 3.84149 0.011961 7.56144 0.00643541 4.61551 10.0342
10401.00 1246.45 0.497603 53.9796 0.594338 19.0698 0.0941109 0.248013 3.83743 0.0117851 7.56582 0.00633807 4.67833 9.91441
10301.00 1246.10 0.546505 54.0324 0.593824 19.0763 0.0957146 0.243516 3.83361 0.0116106 7.57052 0.00624158 4.74226 9.79403
10201.00 1245.74 0.596429 54.0843 0.593363 19.0823 0.0973667 0.239065 3.83004 0.0114375 7.57556 0.00614593 4.80731 9.67309
10101.00 1245.39 0.647422 54.1353 0.592955 19.0879 0.099069 0.234661 3.82672 0.0112659 7.58093 0.00605112 4.87352 9.55158
10001.00 1245.03 0.699533 54.1854 0.592602 19.0932 0.100824 0.230303 3.82364 0.0110957 7.58664 0.00595714 4.94089 9.4295
9901.00 1244.67 0.752815 54.2345 0.592304 19.098 0.102633 0.225993 3.82082 0.0109269 7.59268 0.005864 5.00946 9.30685
9801.00 1244.31 0.807322 54.2826 0.592061 19.1024 0.104499 0.221729 3.81826 0.0107596 7.59906 0.00577168 5.07925 9.18363
9701.00 1243.94 0.863114 54.3297 0.591874 19.1064 0.106424 0.217512 3.81595 0.0105937 7.60577 0.00568019 5.15027 9.05985
9601.00 1243.57 0.920253 54.3758 0.591744 19.1099 0.10841 0.213343 3.81391 0.0104292 7.61282 0.00558952 5.22254 8.93552
9501.00 1243.19 0.978803 54.4208 0.591671 19.113 0.110461 0.209222 3.81213 0.0102661 7.6202 0.00549967 5.2961 8.81063
9401.00 1242.82 1.038836 54.4648 0.591655 19.1156 0.112578 0.205148 3.81061 0.0101044 7.62792 0.00541064 5.37095 8.68519
9301.00 1242.44 1.062047 54.5076 0.591701 19.1178 0.114765 0.201114 3.80941 0.00994421 7.63604 0.00532245 5.44722 8.55909
9201.00 1242.06 1.062129 54.5491 0.591814 19.1196 0.117024 0.197111 3.80857 0.00978544 7.64459 0.0052351 5.52498 8.43222
9101.00 1241.67 1.062231 54.5893 0.591994 19.1209 0.119359 0.193142 3.80809 0.0096281 7.6536 0.00514859 5.60429 8.3046
9001.00 1241.29 1.062354 54.6281 0.592243 19.1217 0.121773 0.189206 3.80797 0.00947221 7.66306 0.00506292 5.68516 8.1762
8901.00 1240.90 1.062499 54.6656 0.592563 19.1221 0.12427 0.185303 3.80824 0.00931775 7.67297 0.00497808 5.76765 8.04703
8801.00 1240.51 1.062667 54.7016 0.592955 19.122 0.126853 0.181434 3.80889 0.00916471 7.68334 0.00489406 5.85178 7.91708
8701.00 1240.12 1.062860 54.7362 0.593422 19.1214 0.129526 0.177599 3.80993 0.00901309 7.69418 0.00481088 5.9376 7.78635
8601.00 1239.73 1.063079 54.7693 0.593964 19.1202 0.132294 0.173797 3.81138 0.00886288 7.70549 0.00472851 6.02515 7.65483
8501.00 1239.33 1.063327 54.8008 0.594584 19.1186 0.13516 0.170031 3.81324 0.00871408 7.71726 0.00464696 6.11445 7.52252
8401.00 1238.93 1.063604 54.8307 0.595283 19.1164 0.138129 0.166299 3.81551 0.00856668 7.72951 0.00456621 6.20556 7.38942
8301.00 1238.53 1.063913 54.859 0.596064 19.1138 0.141206 0.162602 3.81822 0.00842067 7.74223 0.00448628 6.29851 7.25552
8201.00 1238.13 1.064255 54.8856 0.596928 19.1105 0.144395 0.15894 3.82136 0.00827605 7.75542 0.00440715 6.39334 7.12083
8101.00 1237.72 1.064633 54.9105 0.597877 19.1067 0.147703 0.155315 3.82495 0.0081328 7.76908 0.00432881 6.49009 6.98535
8001.00 1237.32 1.065049 54.9336 0.598913 19.1024 0.151133 0.151725 3.82899 0.00799094 7.78322 0.00425127 6.58879 6.84908
7901.00 1236.90 1.065506 54.9548 0.600038 19.0974 0.154693 0.148173 3.83349 0.00785044 7.79782 0.00417452 6.68949 6.71202
7801.00 1236.49 1.066007 54.9743 0.601254 19.0919 0.158387 0.144657 3.83846 0.0077113 7.81289 0.00409855 6.79222 6.57418
7701.00 1236.07 1.066553 54.9918 0.602562 19.0857 0.162222 0.14118 3.8439 0.00757352 7.82842 0.00402336 6.89702 6.43557
7601.00 1235.65 1.067149 55.0074 0.603965 19.079 0.166204 0.13774 3.84983 0.00743709 7.84441 0.00394895 7.00392 6.2962
7501.00 1235.23 1.067798 55.021 0.605463 19.0716 0.17034 0.13434 3.85624 0.007302 7.86084 0.00387531 7.11295 6.15607
7401.00 1234.80 1.068503 55.0325 0.60706 19.0636 0.174637 0.130979 3.86315 0.00716825 7.8777 0.00380244 7.22415 6.01521
7301.00 1234.36 1.069269 55.0421 0.608756 19.055 0.179102 0.127658 3.87055 0.00703584 7.89499 0.00373033 7.33754 5.87362
7201.00 1233.93 1.070100 55.0495 0.610553 19.0457 0.183741 0.124377 3.87845 0.00690475 7.91268 0.00365898 7.45316 5.73134
7101.00 1233.48 1.070999 55.0548 0.612452 19.0357 0.188564 0.121139 3.88686 0.00677498 7.93077 0.00358839 7.57102 5.58838
7001.00 1233.04 1.071974 55.0579 0.614454 19.025 0.193577 0.117943 3.89577 0.00664653 7.94923 0.00351856 7.69114 5.44477
6901.00 1232.59 1.073028 55.0589 0.61656 19.0137 0.198789 0.11479 3.90518 0.0065194 7.96805 0.00344947 7.81354 5.30055
6801.00 1232.13 1.074167 55.0576 0.618771 19.0017 0.204208 0.111681 3.9151 0.00639358 7.98719 0.00338113 7.93822 5.15574
6701.00 1231.67 1.075399 55.0541 0.621087 18.989 0.209841 0.108617 3.92551 0.00626907 8.00663 0.00331354 8.0652 5.0104
6601.00 1231.20 1.076730 55.0484 0.623508 18.9756 0.215698 0.1056 3.93642 0.00614587 8.02634 0.00324669 8.19447 4.86456
6501.00 1230.72 1.078168 55.0405 0.626033 18.9615 0.221787 0.10263 3.9478 0.00602397 8.04628 0.00318059 8.32601 4.71827
6401.00 1230.24 1.079721 55.0303 0.628662 18.9467 0.228116 0.0997078 3.95966 0.00590339 8.06642 0.00311522 8.45982 4.5716
6301.00 1229.75 1.081397 55.0179 0.631393 18.9312 0.234694 0.0968354 3.97197 0.00578411 8.08671 0.0030506 8.59587 4.4246
6201.00 1229.26 1.083208 55.0034 0.634223 18.9149 0.241527 0.0940138 3.98472 0.00566613 8.10711 0.00298671 8.73412 4.27735
6101.00 1228.75 1.085163 54.9866 0.637149 18.898 0.248626 0.0912442 3.99788 0.00554947 8.12756 0.00292357 8.87453 4.12993
6001.00 1228.24 1.087274 54.9678 0.640168 18.8804 0.255996 0.0885281 4.01143 0.00543413 8.148 0.00286117 9.01704 3.98241
5901.00 1227.72 1.089555 54.9469 0.643275 18.862 0.263645 0.0858669 4.02534 0.00532011 8.16839 0.00279951 9.16158 3.8349
5801.00 1227.18 1.092018 54.924 0.646463 18.843 0.271579 0.083262 4.03957 0.00520742 8.18864 0.00273859 9.30807 3.68748
5701.00 1226.64 1.094680 54.8992 0.649725 18.8233 0.279805 0.080715 4.05409 0.00509607 8.2087 0.00267843 9.45641 3.54028
5601.00 1226.09 1.097558 54.8726 0.653054 18.8029 0.288325 0.0782275 4.06884 0.00498607 8.22848 0.00261902 9.60649 3.39341
5501.00 1225.52 1.100669 54.8444 0.656437 18.7819 0.297145 0.0758011 4.08377 0.00487743 8.24791 0.00256037 9.75816 3.24701
5401.00 1224.95 1.104035 54.8147 0.659864 18.7603 0.306266 0.0734375 4.09882 0.00477017 8.2669 0.00250248 9.9113 3.1012
5301.00 1224.36 1.107678 54.7836 0.66332 18.738 0.31569 0.0711385 4.11393 0.0046643 8.28535 0.00244537 10.0657 2.95613
5201.00 1223.75 1.111621 54.7513 0.66679 18.7152 0.325414 0.0689059 4.12902 0.00455984 8.30318 0.00238903 10.2212 2.81198
5101.00 1223.13 1.115893 54.7181 0.670254 18.6918 0.335437 0.0667415 4.14401 0.00445682 8.32028 0.00233349 10.3776 2.6689
5001.00 1222.49 1.120522 54.6842 0.673692 18.6679 0.345753 0.0646473 4.1588 0.00435525 8.33655 0.00227875 10.5347 2.52707
4901.00 1221.84 1.125539 54.65 0.67708 18.6435 0.356354 0.0626253 4.1733 0.00425517 8.35188 0.00222482 10.6921 2.3867
4801.00 1221.17 1.130980 54.6155 0.680391 18.6186 0.367231 0.0606774 4.18739 0.0041566 8.36616 0.00217172 10.8497 2.24798
4701.00 1220.47 1.136883 54.5814 0.683595 18.5933 0.37837 0.0588059 4.20097 0.00405958 8.37926 0.00211946 11.007 2.11114
4601.00 1219.75 1.143286 54.5478 0.686656 18.5676 0.389755 0.057013 4.21389 0.00396414 8.39108 0.00206806 11.1638 1.97639
4501.00 1219.01 1.150234 54.5152 0.689538 18.5415 0.401365 0.0553008 4.22603 0.00387032 8.40149 0.00201754 11.3197 1.84399
4401.00 1218.25 1.157769 54.4842 0.692197 18.515 0.413177 0.053672 4.23722 0.00377817 8.41037 0.00196792 11.4743 1.71419
4301.00 1217.45 1.165938 54.455 0.694587 18.4883 0.425163 0.0521291 4.24732 0.00368774 8.41759 0.00191922 11.6271 1.58726
4201.00 1216.63 1.174785 54.4284 0.696658 18.4612 0.437291 0.0506749 4.25615 0.00359909 8.42302 0.00187147 11.7776 1.46348
4101.00 1215.77 1.184352 54.4049 0.698351 18.4339 0.449525 0.0493123 4.26353 0.00351226 8.42655 0.0018247 11.9255 1.34315
4001.00 1214.88 1.194676 54.3851 0.699608 18.4063 0.461824 0.0480445 4.26928 0.00342733 8.42804 0.00177894 12.07 1.22658
3901.00 1213.96 1.205784 54.3697 0.700363 18.3784 0.474143 0.0468749 4.27319 0.00334438 8.42737 0.00173422 12.2108 1.11411
3801.00 1212.99 1.217685 54.3594 0.700545 18.3503 0.486433 0.0458072 4.27507 0.00326348 8.42444 0.00169059 12.347 1.00605
3701.00 1211.98 1.230365 54.355 0.700085 18.3218 0.498639 0.0448452 4.27472 0.00318473 8.41911 0.00164809 12.4782 0.902772
