Title: Depleted MORB Mantle of Workmann & Hart 2005

liquid_0 thermodynamic data and composition:
Pressure Temperature mass S H V Cp viscosity SiO2 TiO2 Al2O3 Fe2O3 Cr2O3 FeO MnO MgO NiO CaO Na2O
11501.00 1250.17 0.016061 0.045263 -197.050215 0.006036 0.024420 2.496 53.3468 0.603326 18.9747 0.0791805 0.300499 3.89452 0.0138006 7.53515 0.00745563 4.04357 11.201
11401.00 1249.84 0.056173 0.158230 -689.702302 0.021117 0.085413 2.508 53.4079 0.602267 18.9851 0.0803595 0.295501 3.88825 0.0136101 7.5364 0.00734974 4.09646 11.0868
11301.00 1249.51 0.096931 0.272904 -1191.022239 0.036449 0.147393 2.520 53.4683 0.601255 18.9951 0.0815701 0.290547 3.88219 0.013421 7.53794 0.00724471 4.15025 10.9721
11201.00 1249.17 0.138361 0.389351 -1701.343570 0.052041 0.210399 2.532 53.5281 0.60029 19.0049 0.0828138 0.285639 3.87633 0.0132334 7.53979 0.00714055 4.20497 10.8569
11101.00 1248.84 0.180491 0.507646 -2221.017213 0.067905 0.274473 2.544 53.5871 0.599373 19.0142 0.0840915 0.280776 3.87069 0.0130473 7.54194 0.00703725 4.26063 10.741
11001.00 1248.50 0.223348 0.627863 -2750.412543 0.084051 0.339659 2.555 53.6455 0.598504 19.0233 0.0854048 0.275959 3.86526 0.0128626 7.5444 0.00693481 4.31726 10.6247
10901.00 1248.16 0.266965 0.750083 -3289.918575 0.100490 0.406004 2.567 53.7031 0.597684 19.0319 0.086755 0.271187 3.86005 0.0126794 7.54717 0.00683322 4.37486 10.5077
10801.00 1247.83 0.311371 0.874390 -3839.945194 0.117234 0.473556 2.578 53.76 0.596913 19.0403 0.0881434 0.266461 3.85507 0.0124976 7.55026 0.00673249 4.43347 10.3902
10701.00 1247.48 0.356602 1.000873 -4400.924496 0.134297 0.542366 2.590 53.8161 0.596193 19.0482 0.0895716 0.26178 3.85031 0.0123173 7.55366 0.00663262 4.4931 10.2721
10601.00 1247.14 0.402692 1.129626 -4973.312218 0.151690 0.612489 2.601 53.8714 0.595523 19.0558 0.0910411 0.257145 3.84578 0.0121384 7.55739 0.00653359 4.55377 10.1534
10501.00 1246.79 0.449679 1.260747 -5557.589271 0.169429 0.683983 2.613 53.9259 0.594905 19.063 0.0925537 0.252556 3.84149 0.011961 7.56144 0.00643541 4.61551 10.0342
10401.00 1246.45 0.497603 1.394341 -6154.263378 0.187528 0.756907 2.624 53.9796 0.594338 19.0698 0.0941109 0.248013 3.83743 0.0117851 7.56582 0.00633807 4.67833 9.91441
10301.00 1246.10 0.546505 1.530519 -6763.870826 0.206002 0.831325 2.635 54.0324 0.593824 19.0763 0.0957146 0.243516 3.83361 0.0116106 7.57052 0.00624158 4.74226 9.79403
10201.00 1245.74 0.596429 1.669395 -7386.978356 0.224869 0.907305 2.646 54.0843 0.593363 19.0823 0.0973667 0.239065 3.83004 0.0114375 7.57556 0.00614593 4.80731 9.67309
10101.00 1245.39 0.647422 1.811095 -8024.185165 0.244146 0.984919 2.657 54.1353 0.592955 19.0879 0.099069 0.234661 3.82672 0.0112659 7.58093 0.00605112 4.87352 9.55158
10001.00 1245.03 0.699533 1.955747 -8676.125072 0.263850 1.064242 2.668 54.1854 0.592602 19.0932 0.100824 0.230303 3.82364 0.0110957 7.58664 0.00595714 4.94089 9.4295
9901.00 1244.67 0.752815 2.103490 -9343.468815 0.284003 1.145353 2.678 54.2345 0.592304 19.098 0.102633 0.225993 3.82082 0.0109269 7.59268 0.005864 5.00946 9.30685
9801.00 1244.31 0.807322 2.254468 -10026.926529 0.304624 1.228338 2.689 54.2826 0.592061 19.1024 0.104499 0.221729 3.81826 0.0107596 7.59906 0.00577168 5.07925 9.18363
9701.00 1243.94 0.863114 2.408837 -10727.250374 0.325735 1.313286 2.699 54.3297 0.591874 19.1064 0.106424 0.217512 3.81595 0.0105937 7.60577 0.00568019 5.15027 9.05985
9601.00 1243.57 0.920253 2.566759 -11445.237366 0.347360 1.400292 2.710 54.3758 0.591744 19.1099 0.10841 0.213343 3.81391 0.0104292 7.61282 0.00558952 5.22254 8.93552
9501.00 1243.19 0.978803 2.728408 -12181.732383 0.369523 1.489457 2.720 54.4208 0.591671 19.113 0.110461 0.209222 3.81213 0.0102661 7.6202 0.00549967 5.2961 8.81063
9401.00 1242.82 1.038836 2.893967 -12937.631384 0.392251 1.580887 2.730 54.4648 0.591655 19.1156 0.112578 0.205148 3.81061 0.0101044 7.62792 0.00541064 5.37095 8.68519
9301.00 1242.44 1.062047 2.956786 -13235.606812 0.401077 1.616291 2.740 54.5076 0.591701 19.1178 0.114765 0.201114 3.80941 0.00994421 7.63604 0.00532245 5.44722 8.55909
9201.00 1242.06 1.062129 2.955153 -13245.491454 0.401167 1.616501 2.750 54.5491 0.591814 19.1196 0.117024 0.197111 3.80857 0.00978544 7.64459 0.0052351 5.52498 8.43222
9101.00 1241.67 1.062231 2.953552 -13255.568330 0.401261 1.616744 2.760 54.5893 0.591994 19.1209 0.119359 0.193142 3.80809 0.0096281 7.6536 0.00514859 5.60429 8.3046
9001.00 1241.29 1.062354 2.951987 -13265.850613 0.401360 1.617021 2.770 54.6281 0.592243 19.1217 0.121773 0.189206 3.80797 0.00947221 7.66306 0.00506292 5.68516 8.1762
8901.00 1240.90 1.062499 2.950459 -13276.352448 0.401463 1.617335 2.779 54.6656 0.592563 19.1221 0.12427 0.185303 3.80824 0.00931775 7.67297 0.00497808 5.76765 8.04703
8801.00 1240.51 1.062667 2.948973 -13287.089042 0.401571 1.617687 2.788 54.7016 0.592955 19.122 0.126853 0.181434 3.80889 0.00916471 7.68334 0.00489406 5.85178 7.91708
8701.00 1240.12 1.062860 2.947532 -13298.076756 0.401684 1.618080 2.797 54.7362 0.593422 19.1214 0.129526 0.177599 3.80993 0.00901309 7.69418 0.00481088 5.9376 7.78635
8601.00 1239.73 1.063079 2.946138 -13309.333180 0.401804 1.618517 2.806 54.7693 0.593964 19.1202 0.132294 0.173797 3.81138 0.00886288 7.70549 0.00472851 6.02515 7.65483
8501.00 1239.33 1.063327 2.944797 -13320.877275 0.401930 1.618999 2.815 54.8008 0.594584 19.1186 0.13516 0.170031 3.81324 0.00871408 7.71726 0.00464696 6.11445 7.52252
8401.00 1238.93 1.063604 2.943511 -13332.729458 0.402063 1.619530 2.824 54.8307 0.595283 19.1164 0.138129 0.166299 3.81551 0.00856668 7.72951 0.00456621 6.20556 7.38942
8301.00 1238.53 1.063913 2.942285 -13344.911742 0.402204 1.620113 2.832 54.859 0.596064 19.1138 0.141206 0.162602 3.81822 0.00842067 7.74223 0.00448628 6.29851 7.25552
8201.00 1238.13 1.064255 2.941125 -13357.447887 0.402354 1.620750 2.840 54.8856 0.596928 19.1105 0.144395 0.15894 3.82136 0.00827605 7.75542 0.00440715 6.39334 7.12083
8101.00 1237.72 1.064633 2.940035 -13370.363517 0.402512 1.621446 2.848 54.9105 0.597877 19.1067 0.147703 0.155315 3.82495 0.0081328 7.76908 0.00432881 6.49009 6.98535
8001.00 1237.32 1.065049 2.939021 -13383.686334 0.402680 1.622203 2.856 54.9336 0.598913 19.1024 0.151133 0.151725 3.82899 0.00799094 7.78322 0.00425127 6.58879 6.84908
7901.00 1236.90 1.065506 2.938090 -13397.446272 0.402859 1.623026 2.863 54.9548 0.600038 19.0974 0.154693 0.148173 3.83349 0.00785044 7.79782 0.00417452 6.68949 6.71202
7801.00 1236.49 1.066007 2.937246 -13411.675702 0.403050 1.623918 2.870 54.9743 0.601254 19.0919 0.158387 0.144657 3.83846 0.0077113 7.81289 0.00409855 6.79222 6.57418
7701.00 1236.07 1.066553 2.936499 -13426.409692 0.403253 1.624885 2.877 54.9918 0.602562 19.0857 0.162222 0.14118 3.8439 0.00757352 7.82842 0.00402336 6.89702 6.43557
7601.00 1235.65 1.067149 2.935855 -13441.686169 0.403470 1.625931 2.884 55.0074 0.603965 19.079 0.166204 0.13774 3.84983 0.00743709 7.84441 0.00394895 7.00392 6.2962
7501.00 1235.23 1.067798 2.935323 -13457.546298 0.403701 1.627061 2.890 55.021 0.605463 19.0716 0.17034 0.13434 3.85624 0.007302 7.86084 0.00387531 7.11295 6.15607
7401.00 1234.80 1.068503 2.934912 -13474.034697 0.403949 1.628281 2.897 55.0325 0.60706 19.0636 0.174637 0.130979 3.86315 0.00716825 7.8777 0.00380244 7.22415 6.01521
7301.00 1234.36 1.069269 2.934632 -13491.199816 0.404215 1.629596 2.903 55.0421 0.608756 19.055 0.179102 0.127658 3.87055 0.00703584 7.89499 0.00373033 7.33754 5.87362
7201.00 1233.93 1.070100 2.934493 -13509.094272 0.404499 1.631015 2.908 55.0495 0.610553 19.0457 0.183741 0.124377 3.87845 0.00690475 7.91268 0.00365898 7.45316 5.73134
7101.00 1233.48 1.070999 2.934507 -13527.775276 0.404805 1.632542 2.914 55.0548 0.612452 19.0357 0.188564 0.121139 3.88686 0.00677498 7.93077 0.00358839 7.57102 5.58838
7001.00 1233.04 1.071974 2.934687 -13547.305067 0.405133 1.634187 2.919 55.0579 0.614454 19.025 0.193577 0.117943 3.89577 0.00664653 7.94923 0.00351856 7.69114 5.44477
6901.00 1232.59 1.073028 2.935047 -13567.751418 0.405485 1.635957 2.924 55.0589 0.61656 19.0137 0.198789 0.11479 3.90518 0.0065194 7.96805 0.00344947 7.81354 5.30055
6801.00 1232.13 1.074167 2.935602 -13589.188179 0.405865 1.637861 2.929 55.0576 0.618771 19.0017 0.204208 0.111681 3.9151 0.00639358 7.98719 0.00338113 7.93822 5.15574
6701.00 1231.67 1.075399 2.936367 -13611.695896 0.406274 1.639908 2.933 55.0541 0.621087 18.989 0.209841 0.108617 3.92551 0.00626907 8.00663 0.00331354 8.0652 5.0104
6601.00 1231.20 1.076730 2.937362 -13635.362492 0.406714 1.642110 2.937 55.0484 0.623508 18.9756 0.215698 0.1056 3.93642 0.00614587 8.02634 0.00324669 8.19447 4.86456
6501.00 1230.72 1.078168 2.938604 -13660.283997 0.407189 1.644478 2.941 55.0405 0.626033 18.9615 0.221787 0.10263 3.9478 0.00602397 8.04628 0.00318059 8.32601 4.71827
6401.00 1230.24 1.079721 2.940117 -13686.565453 0.407703 1.647024 2.944 55.0303 0.628662 18.9467 0.228116 0.0997078 3.95966 0.00590339 8.06642 0.00311522 8.45982 4.5716
6301.00 1229.75 1.081397 2.941923 -13714.321767 0.408257 1.649761 2.948 55.0179 0.631393 18.9312 0.234694 0.0968354 3.97197 0.00578411 8.08671 0.0030506 8.59587 4.4246
6201.00 1229.26 1.083208 2.944047 -13743.678815 0.408857 1.652705 2.951 55.0034 0.634223 18.9149 0.241527 0.0940138 3.98472 0.00566613 8.10711 0.00298671 8.73412 4.27735
6101.00 1228.75 1.085163 2.946518 -13774.774567 0.409505 1.655871 2.953 54.9866 0.637149 18.898 0.248626 0.0912442 3.99788 0.00554947 8.12756 0.00292357 8.87453 4.12993
6001.00 1228.24 1.087274 2.949366 -13807.760382 0.410208 1.659277 2.956 54.9678 0.640168 18.8804 0.255996 0.0885281 4.01143 0.00543413 8.148 0.00286117 9.01704 3.98241
5901.00 1227.72 1.089555 2.952624 -13842.802429 0.410969 1.662942 2.958 54.9469 0.643275 18.862 0.263645 0.0858669 4.02534 0.00532011 8.16839 0.00279951 9.16158 3.8349
5801.00 1227.18 1.092018 2.956330 -13880.083259 0.411795 1.666888 2.960 54.924 0.646463 18.843 0.271579 0.083262 4.03957 0.00520742 8.18864 0.00273859 9.30807 3.68748
5701.00 1226.64 1.094680 2.960524 -13919.803505 0.412691 1.671137 2.962 54.8992 0.649725 18.8233 0.279805 0.080715 4.05409 0.00509607 8.2087 0.00267843 9.45641 3.54028
5601.00 1226.09 1.097558 2.965249 -13962.183860 0.413664 1.675714 2.964 54.8726 0.653054 18.8029 0.288325 0.0782275 4.06884 0.00498607 8.22848 0.00261902 9.60649 3.39341
5501.00 1225.52 1.100669 2.970556 -14007.467013 0.414721 1.680648 2.965 54.8444 0.656437 18.7819 0.297145 0.0758011 4.08377 0.00487743 8.24791 0.00256037 9.75816 3.24701
5401.00 1224.95 1.104035 2.976497 -14055.919952 0.415871 1.685968 2.967 54.8147 0.659864 18.7603 0.306266 0.0734375 4.09882 0.00477017 8.2669 0.00250248 9.9113 3.1012
5301.00 1224.36 1.107678 2.983131 -14107.836262 0.417122 1.691709 2.968 54.7836 0.66332 18.738 0.31569 0.0711385 4.11393 0.0046643 8.28535 0.00244537 10.0657 2.95613
5201.00 1223.75 1.111621 2.990522 -14163.538549 0.418484 1.697906 2.969 54.7513 0.66679 18.7152 0.325414 0.0689059 4.12902 0.00455984 8.30318 0.00238903 10.2212 2.81198
5101.00 1223.13 1.115893 2.998741 -14223.380909 0.419968 1.704601 2.970 54.7181 0.670254 18.6918 0.335437 0.0667415 4.14401 0.00445682 8.32028 0.00233349 10.3776 2.6689
5001.00 1222.49 1.120522 3.007865 -14287.751228 0.421585 1.711836 2.971 54.6842 0.673692 18.6679 0.345753 0.0646473 4.1588 0.00435525 8.33655 0.00227875 10.5347 2.52707
4901.00 1221.84 1.125539 3.017978 -14357.073257 0.423348 1.719660 2.972 54.65 0.67708 18.6435 0.356354 0.0626253 4.1733 0.00425517 8.35188 0.00222482 10.6921 2.3867
4801.00 1221.17 1.130980 3.029171 -14431.808119 0.425271 1.728124 2.973 54.6155 0.680391 18.6186 0.367231 0.0606774 4.18739 0.0041566 8.36616 0.00217172 10.8497 2.24798
4701.00 1220.47 1.136883 3.041542 -14512.454867 0.427369 1.737285 2.975 54.5814 0.683595 18.5933 0.37837 0.0588059 4.20097 0.00405958 8.37926 0.00211946 11.007 2.11114
4601.00 1219.75 1.143286 3.055198 -14599.549618 0.429658 1.747204 2.976 54.5478 0.686656 18.5676 0.389755 0.057013 4.21389 0.00396414 8.39108 0.00206806 11.1638 1.97639
4501.00 1219.01 1.150234 3.070250 -14693.662322 0.432156 1.757942 2.978 54.5152 0.689538 18.5415 0.401365 0.0553008 4.22603 0.00387032 8.40149 0.00201754 11.3197 1.84399
4401.00 1218.25 1.157769 3.086814 -14795.390299 0.434880 1.769568 2.980 54.4842 0.692197 18.515 0.413177 0.053672 4.23722 0.00377817 8.41037 0.00196792 11.4743 1.71419
4301.00 1217.45 1.165938 3.105010 -14905.346876 0.437849 1.782150 2.982 54.455 0.694587 18.4883 0.425163 0.0521291 4.24732 0.00368774 8.41759 0.00191922 11.6271 1.58726
4201.00 1216.63 1.174785 3.124954 -15024.143274 0.441081 1.795753 2.985 54.4284 0.696658 18.4612 0.437291 0.0506749 4.25615 0.00359909 8.42302 0.00187147 11.7776 1.46348
4101.00 1215.77 1.184352 3.146760 -15152.361139 0.444594 1.810441 2.988 54.4049 0.698351 18.4339 0.449525 0.0493123 4.26353 0.00351226 8.42655 0.0018247 11.9255 1.34315
4001.00 1214.88 1.194676 3.170521 -15290.512461 0.448404 1.826268 2.992 54.3851 0.699608 18.4063 0.461824 0.0480445 4.26928 0.00342733 8.42804 0.00177894 12.07 1.22658
3901.00 1213.96 1.205784 3.196308 -15438.983182 0.452523 1.843272 2.997 54.3697 0.700363 18.3784 0.474143 0.0468749 4.27319 0.00334438 8.42737 0.00173422 12.2108 1.11411
3801.00 1212.99 1.217685 3.224147 -15597.956015 0.456958 1.861467 3.003 54.3594 0.700545 18.3503 0.486433 0.0458072 4.27507 0.00326348 8.42444 0.00169059 12.347 1.00605
3701.00 1211.98 1.230365 3.254004 -15767.308831 0.461706 1.880829 3.009 54.355 0.700085 18.3218 0.498639 0.0448452 4.27472 0.00318473 8.41911 0.00164809 12.4782 0.902772
3601.00 1210.92 1.243777 3.285753 -15946.485865 0.466752 1.901281 3.017 54.3573 0.698907 18.2929 0.510705 0.0439932 4.27193 0.00310823 8.4113 0.00160677 12.6037 0.804608
3501.00 1209.82 1.257827 3.319153 -16134.342876 0.472064 1.922679 3.025 54.367 0.696938 18.2635 0.52257 0.0432553 4.26652 0.00303409 8.40092 0.00156669 12.7227 0.711907
3401.00 1208.67 1.272362 3.353808 -16328.973800 0.477589 1.944785 3.035 54.3851 0.694108 18.2336 0.534174 0.0426358 4.25831 0.00296243 8.38789 0.0015279 12.8347 0.625
3301.00 1207.47 1.287157 3.389132 -16527.536700 0.483245 1.967252 3.047 54.4123 0.690352 18.2029 0.545455 0.0421387 4.24715 0.00289338 8.37218 0.00149047 12.939 0.54419
3201.00 1206.22 1.301903 3.424329 -16726.110219 0.488919 1.989607 3.059 54.4493 0.685618 18.1713 0.556355 0.0417676 4.23294 0.00282708 8.35376 0.00145448 13.035 0.469733
3101.00 1204.91 1.316204 3.458372 -16919.626203 0.494466 2.011240 3.074 54.4967 0.679866 18.1384 0.566819 0.0415255 4.21563 0.00276367 8.33268 0.00141999 13.1224 0.401825
3001.00 1203.56 1.329581 3.490026 -17101.932667 0.499708 2.031419 3.089 54.5551 0.673076 18.1041 0.5768 0.0414137 4.19521 0.0027033 8.30899 0.00138708 13.2007 0.340575
2901.00 1202.16 1.341493 3.517893 -17266.036683 0.504442 2.049316 3.107 54.6248 0.665254 18.0679 0.58626 0.0414323 4.17179 0.00264611 8.28284 0.00135584 13.2697 0.285988
2801.00 1200.73 1.351371 3.540506 -17404.549394 0.508455 2.064060 3.125 54.7059 0.656427 18.0296 0.595172 0.0415792 4.1455 0.00259224 8.2544 0.00132632 13.3296 0.237955
2701.00 1199.25 1.358665 3.556456 -17510.305478 0.511539 2.074815 3.146 54.7983 0.646652 17.9886 0.603521 0.0418498 4.11661 0.0025418 8.22391 0.00129859 13.3804 0.19624
2601.00 1197.75 1.362902 3.564531 -17577.068398 0.513511 2.080859 3.167 54.9017 0.636007 17.9447 0.611306 0.0422373 4.08543 0.00249488 8.19167 0.0012727 13.4227 0.160494
2501.00 1196.24 1.363732 3.563846 -17600.186644 0.514235 2.081666 3.190 55.0156 0.624595 17.8973 0.618533 0.0427323 4.05232 0.00245158 8.158 0.00124871 13.457 0.130262
2401.00 1194.71 1.360969 3.553933 -17577.060521 0.513635 2.076953 3.214 55.1392 0.612528 17.8462 0.625218 0.0433231 4.0177 0.00241192 8.12324 0.00122663 13.484 0.105017
2301.00 1193.19 1.354597 3.534777 -17507.323990 0.511699 2.066707 3.239 55.2717 0.599932 17.7909 0.631382 0.0439965 3.98198 0.00237596 8.08778 0.00120648 13.5045 0.0841856
2201.00 1191.68 1.344766 3.506781 -17392.724739 0.508473 2.051161 3.264 55.4124 0.586931 17.7312 0.63705 0.044738 3.94559 0.00234368 8.05195 0.00118828 13.5195 0.0671812
2101.00 1190.19 1.331760 3.470696 -17236.764188 0.504060 2.030758 3.290 55.5602 0.573648 17.6667 0.642243 0.0455326 3.9089 0.00231509 8.0161 0.00117202 13.5297 0.0534339
2001.00 1188.73 1.315958 3.427518 -17044.205924 0.498594 2.006082 3.317 55.7144 0.560201 17.5973 0.646985 0.0463653 3.87229 0.00229016 7.98055 0.00115768 13.536 0.0424114
1901.00 1187.30 1.297796 3.378381 -16820.565702 0.492235 1.977804 3.343 55.8742 0.546698 17.5228 0.651295 0.0472215 3.83604 0.00226888 7.94558 0.00114526 13.539 0.0336345
1801.00 1185.92 1.277730 3.324475 -16571.667410 0.485149 1.946627 3.370 56.0389 0.533236 17.4431 0.655191 0.0480877 3.80043 0.0022512 7.91142 0.00113473 13.5395 0.0266838
1701.00 1184.58 1.256214 3.266972 -16303.307646 0.477504 1.913245 3.396 56.2079 0.519904 17.3581 0.658691 0.0489512 3.76567 0.00223709 7.87829 0.00112607 13.538 0.021202
1601.00 1183.30 1.233677 3.206987 -16021.033590 0.469461 1.878321 3.423 56.3805 0.50678 17.2677 0.661809 0.0498009 3.73193 0.00222651 7.84637 0.00111926 13.5349 0.0168908
1501.00 1182.07 1.210521 3.145553 -15730.014031 0.461167 1.842466 3.449 56.5564 0.493932 17.172 0.664562 0.0506269 3.69934 0.00221944 7.8158 0.00111428 13.5305 0.0135053
1401.00 1180.89 1.187109 3.083606 -15434.973035 0.452759 1.806237 3.475 56.7351 0.481416 17.071 0.666967 0.051421 3.668 0.00221583 7.7867 0.0011111 13.5253 0.0108477
1301.00 1179.77 1.163768 3.021983 -15140.156749 0.444362 1.770133 3.500 56.9162 0.46928 16.9647 0.669044 0.0521761 3.63798 0.00221563 7.75917 0.00110969 13.5193 0.00876
1201.00 1178.71 1.140784 2.961417 -14849.311926 0.436083 1.734591 3.525 57.0996 0.457561 16.8533 0.670813 0.0528868 3.60931 0.00221882 7.73327 0.00111004 13.5129 0.00711697
1101.00 1177.69 1.118403 2.902536 -14565.665486 0.428015 1.699985 3.550 57.2848 0.446286 16.7368 0.672295 0.0535487 3.58202 0.00222534 7.70907 0.0011121 13.506 0.00582035
1001.00 1176.74 1.096828 2.845856 -14291.904507 0.420238 1.666624 3.574 57.4717 0.43547 16.6155 0.673514 0.054159 3.55612 0.00223514 7.68659 0.00111584 13.4987 0.00479341
901.00 1175.83 1.076220 2.791784 -14030.162604 0.412814 1.634752 3.598 57.6601 0.42512 16.4895 0.674493 0.0547157 3.53159 0.00224818 7.66585 0.00112124 13.4912 0.00397649
801.00 1174.97 1.056697 2.740616 -13782.020622 0.405788 1.604548 3.621 57.8498 0.415234 16.359 0.675254 0.0552178 3.50841 0.0022644 7.64687 0.00112827 13.4835 0.00332338
701.00 1174.15 1.038335 2.692540 -13548.527816 0.399191 1.576127 3.643 58.0407 0.405803 16.2241 0.67582 0.0556655 3.48655 0.00228376 7.62964 0.00113689 13.4755 0.00279831
601.00 1173.38 1.021175 2.647651 -13330.244988 0.393041 1.549547 3.665 58.2326 0.39681 16.0851 0.676212 0.0560592 3.46599 0.00230622 7.61416 0.00114709 13.4672 0.00237364
501.00 1172.64 1.005223 2.605959 -13127.306426 0.387340 1.524819 3.687 58.4255 0.388238 15.9421 0.676448 0.0564004 3.44667 0.00233175 7.60041 0.00115883 13.4587 0.002028
401.00 1171.95 0.990459 2.567404 -12939.494135 0.382084 1.501911 3.708 58.6193 0.380061 15.7953 0.676546 0.0566907 3.42857 0.00236033 7.58839 0.00117211 13.4499 0.00174483
301.00 1171.28 0.976843 2.531874 -12766.316587 0.377258 1.480759 3.728 58.8139 0.372257 15.6448 0.676522 0.0569324 3.41165 0.00239195 7.57807 0.00118691 13.4408 0.0015113
201.00 1170.65 0.964319 2.499221 -12607.084832 0.372841 1.461278 3.748 59.0092 0.364798 15.4908 0.676391 0.0571276 3.39586 0.00242662 7.56945 0.00120323 13.4314 0.00131742
101.00 1170.04 0.952823 2.469271 -12460.980779 0.368812 1.443368 3.767 59.2053 0.357661 15.3335 0.676165 0.057279 3.38118 0.00246435 7.5625 0.00122107 13.4216 0.00115539
1.00 1169.46 0.942284 2.441837 -12327.114317 0.365144 1.426921 3.786 59.4021 0.350821 15.1728 0.675856 0.0573893 3.36757 0.00250518 7.55722 0.00124046 13.4114 0.00101908

garnet_0 thermodynamic data and composition:
