Title: Depleted MORB Mantle of Workmann & Hart 2005

System Thermodynamic Data:
Pressure Temperature mass F phi S H V Cp dVdP*10^6 dVdT*10^6 fO2(absolute) fO2(absolute) rhol rhos viscosity aH2O chisqr
44001.00 1317.20 100.138999 0.0000000000000000 0.000000 246.612502 -1162233.644126 30.057127 124.247869 -19.875396 1406.551884 -6.494 -6.494 0.000000 3.331622 0.000 0 0.000
43901.00 1317.01 100.138999 0.0000000000000000 0.000000 246.612502 -1162534.225006 30.059049 124.254119 -19.882381 1406.485864 -6.499 -6.499 0.000000 3.331409 0.000 0 0.000
43801.00 1316.82 100.138999 0.0000000000000000 0.000000 246.612502 -1162834.825116 30.060973 124.260369 -19.889370 1406.419983 -6.503 -6.503 0.000000 3.331196 0.000 0 0.000
43701.00 1316.62 100.138999 0.0000000000000000 0.000000 246.612502 -1163135.444477 30.062899 124.266619 -19.896364 1406.354241 -6.508 -6.508 0.000000 3.330983 0.000 0 0.000
43601.00 1316.43 100.138999 0.0000000000000000 0.000000 246.612502 -1163436.083109 30.064827 124.272869 -19.903362 1406.288640 -6.513 -6.513 0.000000 3.330769 0.000 0 0.000
43501.00 1316.24 100.138999 0.0000000000000000 0.000000 246.612502 -1163736.741033 30.066758 124.279120 -19.910364 1406.223182 -6.518 -6.518 0.000000 3.330555 0.000 0 0.000
43401.00 1316.04 100.138999 0.0000000000000000 0.000000 246.612502 -1164037.418271 30.068690 124.285370 -19.917372 1406.157867 -6.522 -6.522 0.000000 3.330341 0.000 0 0.000
43301.00 1315.85 100.138999 0.0000000000000000 0.000000 246.612502 -1164338.114844 30.070625 124.291621 -19.924383 1406.092696 -6.527 -6.527 0.000000 3.330127 0.000 0 0.000
43201.00 1315.65 100.138999 0.0000000000000000 0.000000 246.612502 -1164638.830773 30.072561 124.297871 -19.931400 1406.027671 -6.532 -6.532 0.000000 3.329913 0.000 0 0.000
43101.00 1315.46 100.138999 0.0000000000000000 0.000000 246.612502 -1164939.566080 30.074500 124.304122 -19.938421 1405.962793 -6.536 -6.536 0.000000 3.329698 0.000 0 0.000
43001.00 1315.27 100.138999 0.0000000000000000 0.000000 246.612502 -1165240.320786 30.076441 124.310373 -19.945448 1405.898062 -6.541 -6.541 0.000000 3.329483 0.000 0 0.000
42901.00 1315.07 100.138999 0.0000000000000000 0.000000 246.612502 -1165541.094914 30.078385 124.316624 -19.952479 1405.833482 -6.546 -6.546 0.000000 3.329268 0.000 0 0.000
42801.00 1314.88 100.138999 0.0000000000000000 0.000000 246.612502 -1165841.888485 30.080330 124.322876 -19.959514 1405.769051 -6.551 -6.551 0.000000 3.329053 0.000 0 0.000
42701.00 1314.69 100.138999 0.0000000000000000 0.000000 246.612502 -1166142.701522 30.082278 124.329128 -19.966555 1405.704773 -6.556 -6.556 0.000000 3.328837 0.000 0 0.000
42601.00 1314.49 100.138999 0.0000000000000000 0.000000 246.612502 -1166443.534046 30.084228 124.335380 -19.973601 1405.640648 -6.560 -6.560 0.000000 3.328621 0.000 0 0.000
42501.00 1314.30 100.138999 0.0000000000000000 0.000000 246.612502 -1166744.386080 30.086180 124.341632 -19.980652 1405.576677 -6.565 -6.565 0.000000 3.328405 0.000 0 0.000
42401.00 1314.11 100.138999 0.0000000000000000 0.000000 246.612502 -1167045.257647 30.088134 124.347885 -19.987708 1405.512862 -6.570 -6.570 0.000000 3.328189 0.000 0 0.000
42301.00 1313.91 100.138999 0.0000000000000000 0.000000 246.612502 -1167346.148769 30.090091 124.354138 -19.994769 1405.449204 -6.575 -6.575 0.000000 3.327973 0.000 0 0.000
42201.00 1313.72 100.138999 0.0000000000000000 0.000000 246.612502 -1167647.059470 30.092050 124.360391 -20.001835 1405.385705 -6.580 -6.580 0.000000 3.327756 0.000 0 0.000
42101.00 1313.53 100.138999 0.0000000000000000 0.000000 246.612502 -1167947.989771 30.094011 124.366645 -20.008906 1405.322366 -6.585 -6.585 0.000000 3.327539 0.000 0 0.000
42001.00 1313.33 100.138999 0.0000000000000000 0.000000 246.612502 -1168248.939697 30.095975 124.372899 -20.015982 1405.259187 -6.590 -6.590 0.000000 3.327322 0.000 0 0.000
41901.00 1313.14 100.138999 0.0000000000000000 0.000000 246.612502 -1168549.909271 30.097941 124.379153 -20.023064 1405.196172 -6.595 -6.595 0.000000 3.327105 0.000 0 0.000
41801.00 1312.94 100.138999 0.0000000000000000 0.000000 246.612502 -1168850.898515 30.099909 124.385408 -20.030151 1405.133321 -6.599 -6.599 0.000000 3.326887 0.000 0 0.000
41701.00 1312.75 100.138999 0.0000000000000000 0.000000 246.612502 -1169151.907454 30.101879 124.391664 -20.037244 1405.070635 -6.604 -6.604 0.000000 3.326669 0.000 0 0.000
41601.00 1312.56 100.138999 0.0000000000000000 0.000000 246.612502 -1169452.936112 30.103853 124.397920 -20.044342 1405.008116 -6.609 -6.609 0.000000 3.326451 0.000 0 0.000
41501.00 1312.36 100.138999 0.0000000000000000 0.000000 246.612502 -1169753.984513 30.105828 124.404176 -20.051445 1404.945766 -6.614 -6.614 0.000000 3.326233 0.000 0 0.000
41401.00 1312.17 100.138999 0.0000000000000000 0.000000 246.612502 -1170055.052680 30.107806 124.410433 -20.058554 1404.883586 -6.619 -6.619 0.000000 3.326015 0.000 0 0.000
41301.00 1311.97 100.138999 0.0000000000000000 0.000000 246.612502 -1170356.140637 30.109786 124.416690 -20.065669 1404.821578 -6.624 -6.624 0.000000 3.325796 0.000 0 0.000
41201.00 1311.78 100.138999 0.0000000000000000 0.000000 246.612502 -1170657.248410 30.111769 124.422949 -20.072789 1404.759743 -6.629 -6.629 0.000000 3.325577 0.000 0 0.000
41101.00 1311.59 100.138999 0.0000000000000000 0.000000 246.612502 -1170958.376024 30.113754 124.429207 -20.079915 1404.698082 -6.634 -6.634 0.000000 3.325358 0.000 0 0.000
41001.00 1311.39 100.138999 0.0000000000000000 0.000000 246.612502 -1171259.523502 30.115742 124.435467 -20.087047 1404.636599 -6.639 -6.639 0.000000 3.325138 0.000 0 0.000
40901.00 1311.20 100.138999 0.0000000000000000 0.000000 246.612502 -1171560.690869 30.117732 124.441727 -20.094185 1404.575293 -6.644 -6.644 0.000000 3.324918 0.000 0 0.000
40801.00 1311.00 100.138999 0.0000000000000000 0.000000 246.612502 -1171861.878152 30.119725 124.447987 -20.101328 1404.514166 -6.649 -6.649 0.000000 3.324698 0.000 0 0.000
40701.00 1310.81 100.138999 0.0000000000000000 0.000000 246.612502 -1172163.085375 30.121720 124.454249 -20.108477 1404.453221 -6.655 -6.655 0.000000 3.324478 0.000 0 0.000
40601.00 1310.62 100.138999 0.0000000000000000 0.000000 246.612502 -1172464.312564 30.123718 124.460511 -20.115633 1404.392460 -6.660 -6.660 0.000000 3.324258 0.000 0 0.000
40501.00 1310.42 100.138999 0.0000000000000000 0.000000 246.612502 -1172765.559745 30.125719 124.466774 -20.122794 1404.331882 -6.665 -6.665 0.000000 3.324037 0.000 0 0.000
40401.00 1310.23 100.138999 0.0000000000000000 0.000000 246.612502 -1173066.826943 30.127722 124.473037 -20.129962 1404.271492 -6.670 -6.670 0.000000 3.323816 0.000 0 0.000
40301.00 1310.03 100.138999 0.0000000000000000 0.000000 246.612502 -1173368.114185 30.129727 124.479302 -20.137135 1404.211290 -6.675 -6.675 0.000000 3.323595 0.000 0 0.000
40201.00 1309.84 100.138999 0.0000000000000000 0.000000 246.612502 -1173669.421497 30.131736 124.485567 -20.144315 1404.151278 -6.680 -6.680 0.000000 3.323373 0.000 0 0.000
40101.00 1309.64 100.138999 0.0000000000000000 0.000000 246.612502 -1173970.748905 30.133747 124.491834 -20.151501 1404.091457 -6.685 -6.685 0.000000 3.323151 0.000 0 0.000
40001.00 1309.45 100.138999 0.0000000000000000 0.000000 246.612502 -1174272.096437 30.135760 124.498101 -20.158694 1404.031831 -6.691 -6.691 0.000000 3.322929 0.000 0 0.000
39901.00 1309.26 100.138999 0.0000000000000000 0.000000 246.612502 -1174573.464119 30.137777 124.504369 -20.165893 1403.972400 -6.696 -6.696 0.000000 3.322707 0.000 0 0.000
39801.00 1309.06 100.138999 0.0000000000000000 0.000000 246.612502 -1174874.851979 30.139796 124.510638 -20.173098 1403.913167 -6.701 -6.701 0.000000 3.322484 0.000 0 0.000
39701.00 1308.87 100.138999 0.0000000000000000 0.000000 246.612502 -1175176.260043 30.141818 124.516908 -20.180310 1403.854134 -6.706 -6.706 0.000000 3.322261 0.000 0 0.000
39601.00 1308.67 100.138999 0.0000000000000000 0.000000 246.612502 -1175477.688339 30.143842 124.523179 -20.187529 1403.795302 -6.711 -6.711 0.000000 3.322038 0.000 0 0.000
39501.00 1308.48 100.138999 0.0000000000000000 0.000000 246.612502 -1175779.136896 30.145870 124.529451 -20.194754 1403.736673 -6.717 -6.717 0.000000 3.321815 0.000 0 0.000
39401.00 1308.28 100.138999 0.0000000000000000 0.000000 246.612502 -1176080.605741 30.147900 124.535725 -20.201986 1403.678250 -6.722 -6.722 0.000000 3.321591 0.000 0 0.000
39301.00 1308.09 100.138999 0.0000000000000000 0.000000 246.612502 -1176382.094902 30.149933 124.541999 -20.209225 1403.620035 -6.727 -6.727 0.000000 3.321367 0.000 0 0.000
39201.00 1307.89 100.138999 0.0000000000000000 0.000000 246.612502 -1176683.604408 30.151969 124.548275 -20.216471 1403.562029 -6.733 -6.733 0.000000 3.321143 0.000 0 0.000
39101.00 1307.70 100.138999 0.0000000000000000 0.000000 246.612502 -1176985.134288 30.154008 124.554551 -20.223724 1403.504235 -6.738 -6.738 0.000000 3.320918 0.000 0 0.000
39001.00 1307.50 100.138999 0.0000000000000000 0.000000 246.612502 -1177286.684570 30.156049 124.560829 -20.230984 1403.446656 -6.743 -6.743 0.000000 3.320694 0.000 0 0.000
38901.00 1307.31 100.138999 0.0000000000000000 0.000000 246.612502 -1177588.255284 30.158094 124.567109 -20.238250 1403.389292 -6.749 -6.749 0.000000 3.320468 0.000 0 0.000
38801.00 1307.11 100.138999 0.0000000000000000 0.000000 246.612502 -1177889.846459 30.160142 124.573389 -20.245525 1403.332147 -6.754 -6.754 0.000000 3.320243 0.000 0 0.000
38701.00 1306.92 100.138999 0.0000000000000000 0.000000 246.612502 -1178191.458125 30.162192 124.579671 -20.252806 1403.275222 -6.759 -6.759 0.000000 3.320017 0.000 0 0.000
38601.00 1306.72 100.138999 0.0000000000000000 0.000000 246.612502 -1178493.090312 30.164246 124.585954 -20.260094 1403.218521 -6.765 -6.765 0.000000 3.319791 0.000 0 0.000
38501.00 1306.53 100.138999 0.0000000000000000 0.000000 246.612502 -1178794.743050 30.166302 124.592239 -20.267390 1403.162045 -6.770 -6.770 0.000000 3.319565 0.000 0 0.000
38401.00 1306.33 100.138999 0.0000000000000000 0.000000 246.612502 -1179096.416369 30.168362 124.598525 -20.274694 1403.105797 -6.776 -6.776 0.000000 3.319338 0.000 0 0.000
38301.00 1306.14 100.138999 0.0000000000000000 0.000000 246.612502 -1179398.110301 30.170425 124.604813 -20.282005 1403.049778 -6.781 -6.781 0.000000 3.319111 0.000 0 0.000
38201.00 1305.94 100.138999 0.0000000000000000 0.000000 246.612502 -1179699.824875 30.172491 124.611102 -20.289324 1402.993993 -6.787 -6.787 0.000000 3.318884 0.000 0 0.000
38101.00 1305.75 100.138999 0.0000000000000000 0.000000 246.612502 -1180001.560124 30.174560 124.617393 -20.296650 1402.938442 -6.792 -6.792 0.000000 3.318657 0.000 0 0.000
38001.00 1305.55 100.138999 0.0000000000000000 0.000000 246.612502 -1180303.316079 30.176632 124.623686 -20.303985 1402.883129 -6.798 -6.798 0.000000 3.318429 0.000 0 0.000
37901.00 1305.36 100.138999 0.0000000000000000 0.000000 246.612502 -1180605.092772 30.178707 124.629980 -20.311327 1402.828056 -6.803 -6.803 0.000000 3.318200 0.000 0 0.000
37801.00 1305.16 100.138999 0.0000000000000000 0.000000 246.612502 -1180906.890235 30.180786 124.636275 -20.318677 1402.773226 -6.809 -6.809 0.000000 3.317972 0.000 0 0.000
37701.00 1304.97 100.138999 0.0000000000000000 0.000000 246.612502 -1181208.708500 30.182868 124.642573 -20.326035 1402.718642 -6.814 -6.814 0.000000 3.317743 0.000 0 0.000
37601.00 1304.77 100.138999 0.0000000000000000 0.000000 246.612502 -1181510.547600 30.184953 124.648872 -20.333402 1402.664306 -6.820 -6.820 0.000000 3.317514 0.000 0 0.000
37501.00 1304.57 100.138999 0.0000000000000000 0.000000 246.612502 -1181812.407567 30.187041 124.655173 -20.340776 1402.610220 -6.825 -6.825 0.000000 3.317284 0.000 0 0.000
37401.00 1304.38 100.138999 0.0000000000000000 0.000000 246.612502 -1182114.288437 30.189133 124.661477 -20.348159 1402.556389 -6.831 -6.831 0.000000 3.317054 0.000 0 0.000
37301.00 1304.18 100.138999 0.0000000000000000 0.000000 246.612502 -1182416.190241 30.191228 124.667782 -20.355551 1402.502814 -6.837 -6.837 0.000000 3.316824 0.000 0 0.000
37201.00 1303.99 100.138999 0.0000000000000000 0.000000 246.612502 -1182718.113013 30.193327 124.674089 -20.362951 1402.449499 -6.842 -6.842 0.000000 3.316594 0.000 0 0.000
37101.00 1303.79 100.138999 0.0000000000000000 0.000000 246.612502 -1183020.056789 30.195429 124.680398 -20.370359 1402.396446 -6.848 -6.848 0.000000 3.316363 0.000 0 0.000
37001.00 1303.60 100.138999 0.0000000000000000 0.000000 246.612502 -1183322.021603 30.197534 124.686709 -20.377777 1402.343658 -6.854 -6.854 0.000000 3.316132 0.000 0 0.000
36901.00 1303.40 100.138999 0.0000000000000000 0.000000 246.612502 -1183624.007489 30.199643 124.693022 -20.385203 1402.291139 -6.859 -6.859 0.000000 3.315900 0.000 0 0.000
36801.00 1303.20 100.138999 0.0000000000000000 0.000000 246.612502 -1183926.014483 30.201756 124.699337 -20.392638 1402.238892 -6.865 -6.865 0.000000 3.315668 0.000 0 0.000
36701.00 1303.01 100.138999 0.0000000000000000 0.000000 246.612502 -1184228.042621 30.203872 124.705655 -20.400082 1402.186919 -6.871 -6.871 0.000000 3.315436 0.000 0 0.000
36601.00 1302.81 100.138999 0.0000000000000000 0.000000 246.612502 -1184530.091937 30.205992 124.711975 -20.407535 1402.135225 -6.876 -6.876 0.000000 3.315203 0.000 0 0.000
36501.00 1302.61 100.138999 0.0000000000000000 0.000000 246.612502 -1184832.162470 30.208115 124.718297 -20.414998 1402.083811 -6.882 -6.882 0.000000 3.314970 0.000 0 0.000
36401.00 1302.42 100.138999 0.0000000000000000 0.000000 246.612502 -1185134.254255 30.210242 124.724622 -20.422469 1402.032683 -6.888 -6.888 0.000000 3.314737 0.000 0 0.000
36301.00 1302.22 100.138999 0.0000000000000000 0.000000 246.612502 -1185436.367329 30.212373 124.730949 -20.429951 1401.981842 -6.894 -6.894 0.000000 3.314503 0.000 0 0.000
36201.00 1302.03 100.138999 0.0000000000000000 0.000000 246.612502 -1185738.501730 30.214508 124.737279 -20.437442 1401.931293 -6.900 -6.900 0.000000 3.314269 0.000 0 0.000
36101.00 1301.83 100.138999 0.0000000000000000 0.000000 246.612502 -1186040.657496 30.216646 124.743611 -20.444942 1401.881039 -6.906 -6.906 0.000000 3.314034 0.000 0 0.000
36001.00 1301.63 100.138999 0.0000000000000000 0.000000 246.612502 -1186342.834664 30.218788 124.749946 -20.452452 1401.831083 -6.911 -6.911 0.000000 3.313799 0.000 0 0.000
35901.00 1301.44 100.138999 0.0000000000000000 0.000000 246.612502 -1186645.033274 30.220934 124.756283 -20.459973 1401.781430 -6.917 -6.917 0.000000 3.313564 0.000 0 0.000
35801.00 1301.24 100.138999 0.0000000000000000 0.000000 246.612502 -1186947.253365 30.223084 124.762624 -20.467503 1401.732082 -6.923 -6.923 0.000000 3.313328 0.000 0 0.000
35701.00 1301.04 100.138999 0.0000000000000000 0.000000 246.612502 -1187249.494975 30.225238 124.768967 -20.475043 1401.683044 -6.929 -6.929 0.000000 3.313092 0.000 0 0.000
35601.00 1300.84 100.138999 0.0000000000000000 0.000000 246.612502 -1187551.758145 30.227396 124.775313 -20.482594 1401.634320 -6.935 -6.935 0.000000 3.312856 0.000 0 0.000
35501.00 1300.65 100.138999 0.0000000000000000 0.000000 246.612502 -1187854.042914 30.229558 124.781662 -20.490155 1401.585914 -6.941 -6.941 0.000000 3.312619 0.000 0 0.000
35401.00 1300.45 100.138999 0.0000000000000000 0.000000 246.612502 -1188156.349325 30.231724 124.788014 -20.497727 1401.537829 -6.947 -6.947 0.000000 3.312381 0.000 0 0.000
35301.00 1300.25 100.138999 0.0000000000000000 0.000000 246.612502 -1188458.677417 30.233895 124.794369 -20.505309 1401.490069 -6.953 -6.953 0.000000 3.312144 0.000 0 0.000
35201.00 1300.06 100.138999 0.0000000000000000 0.000000 246.612502 -1188761.027232 30.236069 124.800728 -20.512902 1401.442639 -6.959 -6.959 0.000000 3.311905 0.000 0 0.000
35101.00 1299.86 100.138999 0.0000000000000000 0.000000 246.612502 -1189063.398813 30.238248 124.807089 -20.520506 1401.395544 -6.965 -6.965 0.000000 3.311667 0.000 0 0.000
35001.00 1299.66 100.138999 0.0000000000000000 0.000000 246.612502 -1189365.792201 30.240431 124.813454 -20.528121 1401.348786 -6.971 -6.971 0.000000 3.311428 0.000 0 0.000
34901.00 1299.46 100.138999 0.0000000000000000 0.000000 246.612502 -1189668.207441 30.242618 124.819822 -20.535747 1401.302372 -6.977 -6.977 0.000000 3.311188 0.000 0 0.000
34801.00 1299.27 100.138999 0.0000000000000000 0.000000 246.612502 -1189970.644575 30.244810 124.826194 -20.543385 1401.256305 -6.983 -6.983 0.000000 3.310948 0.000 0 0.000
34701.00 1299.07 100.138999 0.0000000000000000 0.000000 246.612502 -1190273.103647 30.247006 124.832569 -20.551034 1401.210589 -6.990 -6.990 0.000000 3.310708 0.000 0 0.000
34601.00 1298.87 100.138999 0.0000000000000000 0.000000 246.612502 -1190575.584703 30.249206 124.838948 -20.558695 1401.165230 -6.996 -6.996 0.000000 3.310467 0.000 0 0.000
34501.00 1298.67 100.138999 0.0000000000000000 0.000000 246.612502 -1190878.087786 30.251411 124.845331 -20.566367 1401.120233 -7.002 -7.002 0.000000 3.310226 0.000 0 0.000
34401.00 1298.47 100.138999 0.0000000000000000 0.000000 246.612502 -1191180.612943 30.253621 124.851717 -20.574052 1401.075601 -7.008 -7.008 0.000000 3.309984 0.000 0 0.000
34301.00 1298.28 100.138999 0.0000000000000000 0.000000 246.612502 -1191483.160219 30.255835 124.858108 -20.581748 1401.031341 -7.014 -7.014 0.000000 3.309742 0.000 0 0.000
34201.00 1298.08 100.138999 0.0000000000000000 0.000000 246.612502 -1191785.729661 30.258054 124.864502 -20.589457 1400.987457 -7.021 -7.021 0.000000 3.309499 0.000 0 0.000
34101.00 1297.88 100.138999 0.0000000000000000 0.000000 246.612502 -1192088.321317 30.260278 124.870900 -20.597178 1400.943954 -7.027 -7.027 0.000000 3.309256 0.000 0 0.000
34001.00 1297.68 100.138999 0.0000000000000000 0.000000 246.612502 -1192390.935233 30.262506 124.877303 -20.604912 1400.900838 -7.033 -7.033 0.000000 3.309012 0.000 0 0.000
33901.00 1297.48 100.138999 0.0000000000000000 0.000000 246.612502 -1192693.571460 30.264740 124.883709 -20.612659 1400.858114 -7.040 -7.040 0.000000 3.308768 0.000 0 0.000
33801.00 1297.28 100.138999 0.0000000000000000 0.000000 246.612502 -1192996.230044 30.266978 124.890121 -20.620418 1400.815787 -7.046 -7.046 0.000000 3.308523 0.000 0 0.000
33701.00 1297.09 100.138999 0.0000000000000000 0.000000 246.612502 -1193298.911037 30.269221 124.896536 -20.628190 1400.773864 -7.052 -7.052 0.000000 3.308278 0.000 0 0.000
33601.00 1296.89 100.138999 0.0000000000000000 0.000000 246.612502 -1193601.614487 30.271470 124.902956 -20.635976 1400.732349 -7.059 -7.059 0.000000 3.308032 0.000 0 0.000
33501.00 1296.69 100.138999 0.0000000000000000 0.000000 246.612502 -1193904.340447 30.273723 124.909381 -20.643775 1400.691249 -7.065 -7.065 0.000000 3.307786 0.000 0 0.000
33401.00 1296.49 100.138999 0.0000000000000000 0.000000 246.612502 -1194207.088967 30.275982 124.915810 -20.651588 1400.650570 -7.072 -7.072 0.000000 3.307539 0.000 0 0.000
33301.00 1296.29 100.138999 0.0000000000000000 0.000000 246.612502 -1194509.860100 30.278246 124.922245 -20.659415 1400.610318 -7.078 -7.078 0.000000 3.307292 0.000 0 0.000
33201.00 1296.09 100.138999 0.0000000000000000 0.000000 246.612502 -1194812.653897 30.280515 124.928684 -20.667256 1400.570498 -7.085 -7.085 0.000000 3.307044 0.000 0 0.000
33101.00 1295.89 100.138999 0.0000000000000000 0.000000 246.612502 -1195115.470414 30.282789 124.935128 -20.675111 1400.531118 -7.091 -7.091 0.000000 3.306796 0.000 0 0.000
33001.00 1295.69 100.138999 0.0000000000000000 0.000000 246.612502 -1195418.309703 30.285069 124.941578 -20.682980 1400.492184 -7.098 -7.098 0.000000 3.306547 0.000 0 0.000
32901.00 1295.49 100.138999 0.0000000000000000 0.000000 246.612502 -1195721.171821 30.287355 124.948033 -20.690864 1400.453703 -7.104 -7.104 0.000000 3.306297 0.000 0 0.000
32801.00 1295.29 100.138999 0.0000000000000000 0.000000 246.612502 -1196024.056821 30.289646 124.954493 -20.698762 1400.415680 -7.111 -7.111 0.000000 3.306047 0.000 0 0.000
