Title: Depleted MORB Mantle of Workmann & Hart 2005

Liquid Composition:
Pressure Temperature mass SiO2 TiO2 Al2O3 Fe2O3 Cr2O3 FeO MnO MgO NiO CaO Na2O 
44001.00 1203.52 0.000000 ---
43901.00 1203.35 0.000000 ---
43801.00 1203.18 0.000000 ---
43701.00 1203.01 0.000000 ---
43601.00 1202.83 0.000000 ---
43501.00 1202.66 0.000000 ---
43401.00 1202.49 0.000000 ---
43301.00 1202.32 0.000000 ---
43201.00 1202.14 0.000000 ---
43101.00 1201.97 0.000000 ---
43001.00 1201.80 0.000000 ---
42901.00 1201.63 0.000000 ---
42801.00 1201.45 0.000000 ---
42701.00 1201.28 0.000000 ---
42601.00 1201.11 0.000000 ---
42501.00 1200.94 0.000000 ---
42401.00 1200.76 0.000000 ---
42301.00 1200.59 0.000000 ---
42201.00 1200.42 0.000000 ---
42101.00 1200.25 0.000000 ---
42001.00 1200.07 0.000000 ---
41901.00 1199.90 0.000000 ---
41801.00 1199.73 0.000000 ---
41701.00 1199.55 0.000000 ---
41601.00 1199.38 0.000000 ---
41501.00 1199.21 0.000000 ---
41401.00 1199.04 0.000000 ---
41301.00 1198.86 0.000000 ---
41201.00 1198.69 0.000000 ---
41101.00 1198.52 0.000000 ---
41001.00 1198.35 0.000000 ---
40901.00 1198.17 0.000000 ---
40801.00 1198.00 0.000000 ---
40701.00 1197.83 0.000000 ---
40601.00 1197.65 0.000000 ---
40501.00 1197.48 0.000000 ---
40401.00 1197.31 0.000000 ---
40301.00 1197.14 0.000000 ---
40201.00 1196.96 0.000000 ---
40101.00 1196.79 0.000000 ---
40001.00 1196.62 0.000000 ---
39901.00 1196.44 0.000000 ---
39801.00 1196.27 0.000000 ---
39701.00 1196.10 0.000000 ---
39601.00 1195.92 0.000000 ---
39501.00 1195.75 0.000000 ---
39401.00 1195.58 0.000000 ---
39301.00 1195.40 0.000000 ---
39201.00 1195.23 0.000000 ---
39101.00 1195.06 0.000000 ---
39001.00 1194.88 0.000000 ---
38901.00 1194.71 0.000000 ---
38801.00 1194.54 0.000000 ---
38701.00 1194.36 0.000000 ---
38601.00 1194.19 0.000000 ---
38501.00 1194.02 0.000000 ---
38401.00 1193.84 0.000000 ---
38301.00 1193.67 0.000000 ---
38201.00 1193.50 0.000000 ---
38101.00 1193.32 0.000000 ---
38001.00 1193.15 0.000000 ---
37901.00 1192.98 0.000000 ---
37801.00 1192.80 0.000000 ---
37701.00 1192.63 0.000000 ---
37601.00 1192.45 0.000000 ---
37501.00 1192.28 0.000000 ---
37401.00 1192.11 0.000000 ---
37301.00 1191.93 0.000000 ---
37201.00 1191.76 0.000000 ---
37101.00 1191.59 0.000000 ---
37001.00 1191.41 0.000000 ---
36901.00 1191.24 0.000000 ---
36801.00 1191.06 0.000000 ---
36701.00 1190.89 0.000000 ---
36601.00 1190.71 0.000000 ---
36501.00 1190.54 0.000000 ---
36401.00 1190.37 0.000000 ---
36301.00 1190.19 0.000000 ---
36201.00 1190.02 0.000000 ---
36101.00 1189.84 0.000000 ---
36001.00 1189.67 0.000000 ---
35901.00 1189.49 0.000000 ---
35801.00 1189.32 0.000000 ---
35701.00 1189.15 0.000000 ---
35601.00 1188.97 0.000000 ---
35501.00 1188.80 0.000000 ---
35401.00 1188.62 0.000000 ---
35301.00 1188.45 0.000000 ---
35201.00 1188.27 0.000000 ---
35101.00 1188.10 0.000000 ---
35001.00 1187.92 0.000000 ---
34901.00 1187.75 0.000000 ---
34801.00 1187.57 0.000000 ---
34701.00 1187.40 0.000000 ---
34601.00 1187.22 0.000000 ---
34501.00 1187.05 0.000000 ---
34401.00 1186.87 0.000000 ---
34301.00 1186.70 0.000000 ---
34201.00 1186.52 0.000000 ---
34101.00 1186.34 0.000000 ---
34001.00 1186.17 0.000000 ---
33901.00 1185.99 0.000000 ---
33801.00 1185.82 0.000000 ---
33701.00 1185.64 0.000000 ---
33601.00 1185.47 0.000000 ---
33501.00 1185.29 0.000000 ---
33401.00 1185.11 0.000000 ---
33301.00 1184.94 0.000000 ---
33201.00 1184.76 0.000000 ---
33101.00 1184.59 0.000000 ---
33001.00 1184.41 0.000000 ---
32901.00 1184.23 0.000000 ---
32801.00 1184.06 0.000000 ---
32701.00 1183.88 0.000000 ---
32601.00 1183.70 0.000000 ---
32501.00 1183.53 0.000000 ---
32401.00 1183.35 0.000000 ---
32301.00 1183.17 0.000000 ---
32201.00 1183.00 0.000000 ---
32101.00 1182.82 0.000000 ---
32001.00 1182.64 0.000000 ---
31901.00 1182.46 0.000000 ---
31801.00 1182.29 0.000000 ---
31701.00 1182.11 0.000000 ---
31601.00 1181.93 0.000000 ---
31501.00 1181.75 0.000000 ---
31401.00 1181.58 0.000000 ---
31301.00 1181.40 0.000000 ---
31201.00 1181.22 0.000000 ---
31101.00 1181.04 0.000000 ---
31001.00 1180.86 0.000000 ---
30901.00 1180.69 0.000000 ---
30801.00 1180.51 0.000000 ---
30701.00 1180.33 0.000000 ---
30601.00 1180.15 0.000000 ---
30501.00 1179.97 0.000000 ---
30401.00 1179.79 0.000000 ---
30301.00 1179.61 0.000000 ---
30201.00 1179.44 0.000000 ---
30101.00 1179.26 0.000000 ---
30001.00 1179.08 0.000000 ---
29901.00 1178.90 0.000000 ---
29801.00 1178.72 0.000000 ---
29701.00 1178.54 0.000000 ---
29601.00 1178.36 0.000000 ---
29501.00 1178.18 0.000000 ---
29401.00 1178.00 0.000000 ---
29301.00 1177.82 0.000000 ---
29201.00 1177.64 0.000000 ---
29101.00 1177.46 0.000000 ---
29001.00 1177.28 0.000000 ---
28901.00 1177.10 0.000000 ---
28801.00 1176.91 0.000000 ---
28701.00 1176.73 0.000000 ---
28601.00 1176.55 0.000000 ---
28501.00 1176.37 0.000000 ---
28401.00 1176.19 0.000000 ---
28301.00 1176.01 0.000000 ---
28201.00 1175.82 0.000000 ---
28101.00 1175.64 0.000000 ---
28001.00 1175.46 0.000000 ---
27901.00 1175.28 0.000000 ---
27801.00 1175.10 0.000000 ---
27701.00 1174.91 0.000000 ---
27601.00 1174.73 0.000000 ---
27501.00 1174.55 0.000000 ---
27401.00 1174.36 0.000000 ---
27301.00 1174.18 0.000000 ---
27201.00 1173.99 0.000000 ---
27101.00 1173.81 0.000000 ---
27001.00 1173.63 0.000000 ---
26901.00 1173.44 0.000000 ---
26801.00 1173.26 0.000000 ---
26701.00 1173.07 0.000000 ---
26601.00 1172.89 0.000000 ---
26501.00 1172.70 0.000000 ---
26401.00 1172.52 0.000000 ---
26301.00 1172.33 0.000000 ---
26201.00 1172.14 0.000000 ---
26101.00 1171.96 0.000000 ---
26001.00 1171.77 0.000000 ---
25901.00 1171.58 0.000000 ---
25801.00 1171.40 0.000000 ---
25701.00 1171.21 0.000000 ---
25601.00 1171.02 0.000000 ---
25501.00 1170.83 0.000000 ---
25401.00 1170.64 0.000000 ---
25301.00 1170.45 0.000000 ---
25201.00 1170.27 0.000000 ---
25101.00 1170.08 0.000000 ---
25001.00 1169.89 0.000000 ---
24901.00 1169.70 0.000000 ---
24801.00 1169.51 0.000000 ---
24701.00 1169.32 0.000000 ---
24601.00 1169.12 0.000000 ---
24501.00 1168.93 0.000000 ---
24401.00 1168.74 0.000000 ---
24301.00 1168.55 0.000000 ---
24201.00 1168.36 0.000000 ---
24101.00 1168.16 0.000000 ---
24001.00 1167.97 0.000000 ---
23901.00 1167.78 0.000000 ---
23801.00 1167.58 0.000000 ---
23701.00 1167.39 0.000000 ---
23601.00 1167.19 0.000000 ---
23501.00 1167.00 0.000000 ---
23401.00 1166.80 0.000000 ---
23301.00 1166.60 0.000000 ---
23201.00 1166.41 0.000000 ---
23101.00 1166.21 0.000000 ---
23001.00 1166.01 0.000000 ---
22901.00 1165.81 0.000000 ---
22801.00 1165.62 0.000000 ---
22701.00 1165.42 0.000000 ---
22601.00 1165.22 0.000000 ---
22501.00 1165.02 0.000000 ---
22401.00 1164.82 0.000000 ---
22301.00 1164.61 0.000000 ---
22201.00 1164.41 0.000000 ---
22101.00 1164.21 0.000000 ---
22001.00 1164.01 0.000000 ---
21901.00 1163.80 0.000000 ---
21801.00 1163.60 0.000000 ---
21701.00 1163.39 0.000000 ---
21601.00 1163.19 0.000000 ---
21501.00 1162.98 0.000000 ---
21401.00 1162.77 0.000000 ---
21301.00 1162.57 0.000000 ---
21201.00 1162.36 0.000000 ---
21101.00 1162.15 0.000000 ---
21001.00 1161.94 0.000000 ---
20901.00 1161.73 0.000000 ---
20801.00 1161.51 0.000000 ---
20701.00 1161.30 0.000000 ---
20601.00 1161.09 0.000000 ---
20501.00 1160.87 0.000000 ---
20401.00 1160.66 0.000000 ---
20301.00 1160.44 0.000000 ---
20201.00 1160.22 0.000000 ---
20101.00 1160.01 0.000000 ---
20001.00 1159.79 0.000000 ---
19901.00 1159.57 0.000000 ---
19801.00 1159.35 0.000000 ---
19701.00 1159.12 0.000000 ---
19601.00 1158.90 0.000000 ---
19501.00 1158.68 0.000000 ---
19401.00 1158.45 0.000000 ---
19301.00 1158.22 0.000000 ---
19201.00 1157.99 0.000000 ---
19101.00 1157.76 0.000000 ---
19001.00 1157.53 0.000000 ---
18901.00 1157.30 0.000000 ---
18801.00 1157.07 0.000000 ---
18701.00 1156.83 0.000000 ---
18601.00 1156.59 0.000000 ---
18501.00 1156.35 0.000000 ---
18401.00 1156.11 0.000000 ---
18301.00 1155.87 0.000000 ---
18201.00 1155.63 0.000000 ---
18101.00 1155.38 0.000000 ---
18001.00 1155.13 0.000000 ---
17901.00 1154.88 0.000000 ---
17801.00 1154.63 0.000000 ---
17701.00 1154.37 0.000000 ---
17601.00 1154.12 0.000000 ---
17501.00 1153.86 0.000000 ---
17401.00 1153.60 0.000000 ---
17301.00 1153.33 0.000000 ---
17201.00 1153.06 0.000000 ---
17101.00 1152.79 0.000000 ---
17001.00 1152.52 0.000000 ---
16901.00 1152.24 0.000000 ---
16801.00 1151.96 0.000000 ---
16701.00 1151.68 0.000000 ---
16601.00 1151.43 0.000000 ---
16501.00 1151.27 0.000000 ---
16401.00 1151.11 0.000000 ---
16301.00 1150.95 0.000000 ---
16201.00 1150.79 0.000000 ---
16101.00 1150.63 0.000000 ---
16001.00 1150.47 0.000000 ---
15901.00 1150.31 0.000000 ---
15801.00 1150.15 0.000000 ---
15701.00 1149.99 0.000000 ---
15601.00 1149.83 0.000000 ---
15501.00 1149.67 0.000000 ---
15401.00 1149.51 0.000000 ---
15301.00 1149.35 0.000000 ---
15201.00 1149.19 0.000000 ---
15101.00 1149.03 0.000000 ---
15001.00 1148.87 0.000000 ---
14901.00 1148.71 0.000000 ---
14801.00 1148.55 0.000000 ---
14701.00 1148.39 0.000000 ---
14601.00 1148.23 0.000000 ---
14501.00 1148.07 0.000000 ---
14401.00 1147.91 0.000000 ---
14301.00 1147.75 0.000000 ---
14201.00 1147.59 0.000000 ---
14101.00 1147.43 0.000000 ---
14001.00 1147.27 0.000000 ---
13901.00 1147.11 0.000000 ---
13801.00 1146.95 0.000000 ---
13701.00 1146.79 0.000000 ---
13601.00 1146.63 0.000000 ---
13501.00 1146.47 0.000000 ---
13401.00 1146.31 0.000000 ---
13301.00 1146.15 0.000000 ---
13201.00 1145.99 0.000000 ---
13101.00 1145.83 0.000000 ---
13001.00 1145.67 0.000000 ---
12901.00 1145.51 0.000000 ---
12801.00 1145.35 0.000000 ---
12701.00 1145.19 0.000000 ---
12601.00 1145.03 0.000000 ---
12501.00 1144.87 0.000000 ---
12401.00 1144.71 0.000000 ---
12301.00 1144.55 0.000000 ---
12201.00 1144.39 0.000000 ---
12101.00 1144.23 0.000000 ---
12001.00 1144.07 0.000000 ---
11901.00 1143.91 0.000000 ---
11801.00 1143.75 0.000000 ---
11701.00 1143.59 0.000000 ---
11601.00 1143.43 0.000000 ---
11501.00 1143.27 0.000000 ---
11401.00 1143.12 0.000000 ---
11301.00 1142.96 0.000000 ---
11201.00 1142.80 0.000000 ---
11101.00 1142.64 0.000000 ---
11001.00 1142.48 0.000000 ---
10901.00 1142.32 0.000000 ---
10801.00 1142.16 0.000000 ---
10701.00 1142.00 0.000000 ---
10601.00 1141.84 0.000000 ---
10501.00 1141.68 0.000000 ---
10401.00 1141.52 0.000000 ---
10301.00 1141.36 0.000000 ---
10201.00 1141.20 0.000000 ---
10101.00 1141.04 0.000000 ---
10001.00 1140.88 0.000000 ---
9901.00 1140.72 0.000000 ---
9801.00 1140.56 0.000000 ---
9701.00 1140.40 0.000000 ---
9601.00 1140.24 0.000000 ---
9501.00 1140.08 0.000000 ---
9401.00 1139.92 0.000000 ---
9301.00 1139.76 0.000000 ---
9201.00 1139.59 0.000000 ---
9101.00 1139.37 0.000000 ---
9001.00 1139.14 0.000000 ---
8901.00 1138.92 0.000000 ---
8801.00 1138.70 0.000000 ---
8701.00 1138.48 0.000000 ---
8601.00 1138.26 0.000000 ---
8501.00 1138.04 0.000000 ---
8401.00 1137.82 0.000000 ---
8301.00 1137.60 0.000000 ---
8201.00 1137.38 0.000000 ---
8101.00 1137.16 0.000000 ---
8001.00 1136.94 0.000000 ---
7901.00 1136.73 0.000000 ---
7801.00 1136.51 0.000000 ---
7701.00 1136.30 0.000000 ---
7601.00 1136.08 0.000000 ---
7501.00 1135.86 0.000000 ---
7401.00 1135.65 0.000000 ---
7301.00 1135.43 0.000000 ---
7201.00 1135.22 0.000000 ---
7101.00 1135.00 0.000000 ---
7001.00 1134.79 0.000000 ---
6901.00 1134.57 0.000000 ---
6801.00 1134.35 0.000000 ---
6701.00 1134.14 0.000000 ---
6601.00 1133.92 0.000000 ---
6501.00 1133.70 0.000000 ---
6401.00 1133.48 0.000000 ---
6301.00 1133.27 0.000000 ---
6201.00 1133.05 0.000000 ---
6101.00 1132.83 0.000000 ---
6001.00 1132.61 0.000000 ---
5901.00 1132.39 0.000000 ---
5801.00 1132.16 0.000000 ---
5701.00 1131.94 0.000000 ---
5601.00 1131.72 0.000000 ---
5501.00 1131.49 0.000000 ---
5401.00 1131.26 0.000000 ---
5301.00 1131.04 0.000000 ---
5201.00 1130.81 0.000000 ---
5101.00 1130.58 0.000000 ---
5001.00 1130.35 0.000000 ---
4901.00 1130.12 0.000000 ---
4801.00 1129.88 0.000000 ---
4701.00 1129.65 0.000000 ---
4601.00 1129.42 0.000000 ---
4501.00 1129.18 0.000000 ---
4401.00 1128.94 0.000000 ---
4301.00 1128.71 0.000000 ---
4201.00 1128.47 0.000000 ---
4101.00 1128.23 0.000000 ---
4001.00 1128.00 0.000000 ---
3901.00 1127.76 0.000000 ---
3801.00 1127.53 0.000000 ---
3701.00 1127.29 0.000000 ---
3601.00 1127.06 0.000000 ---
3501.00 1126.83 0.000000 ---
3401.00 1126.60 0.000000 ---
3301.00 1126.37 0.000000 ---
3201.00 1126.14 0.000000 ---
3101.00 1125.92 0.000000 ---
3001.00 1125.69 0.000000 ---
2901.00 1125.47 0.000000 ---
2801.00 1125.26 0.000000 ---
2701.00 1125.04 0.000000 ---
2601.00 1124.83 0.000000 ---
2501.00 1124.62 0.000000 ---
2401.00 1124.41 0.000000 ---
2301.00 1124.21 0.000000 ---
2201.00 1124.00 0.000000 ---
2101.00 1123.80 0.000000 ---
2001.00 1123.61 0.000000 ---
1901.00 1123.41 0.000000 ---
1801.00 1123.22 0.000000 ---
1701.00 1123.03 0.000000 ---
1601.00 1122.84 0.000000 ---
1501.00 1122.65 0.000000 ---
1401.00 1122.46 0.000000 ---
1301.00 1122.28 0.000000 ---
1201.00 1122.10 0.000000 ---
1101.00 1121.92 0.000000 ---
1001.00 1121.74 0.000000 ---
901.00 1121.56 0.000000 ---
801.00 1121.38 0.000000 ---
701.00 1121.20 0.000000 ---
601.00 1121.03 0.000000 ---
501.00 1120.86 0.000000 ---
401.00 1120.68 0.000000 ---
301.00 1120.51 0.000000 ---
201.00 1118.85 0.676979 59.1931 1.52928 17.1127 0.754146 0.0818315 2.7853 0.00240056 6.27678 0.00114396 10.7031 1.56019
101.00 1116.87 1.510571 59.4243 1.42958 17.1027 0.738863 0.0809923 2.74136 0.00232041 6.22943 0.00110342 10.7084 1.54098
1.00 1114.84 1.850402 59.6514 1.33392 17.0927 0.723444 0.0801766 2.69805 0.00224305 6.18208 0.00106434 10.713 1.5219