Title: Depleted MORB Mantle of Workmann & Hart 2005

System Thermodynamic Data:
Pressure Temperature mass F phi S H V Cp dVdP*10^6 dVdT*10^6 fO2(absolute) fO2(absolute) rhol rhos viscosity aH2O chisqr
44001.00 1203.52 100.138999 0.0000000000000000 0.000000 237.278674 -1176541.480376 29.886733 123.264510 -19.844442 1353.662464 -7.391 -7.391 0.000000 3.350617 0.000 0 0.000
43901.00 1203.35 100.138999 0.0000000000000000 0.000000 237.278674 -1176840.357244 29.888641 123.270097 -19.851304 1353.600571 -7.395 -7.395 0.000000 3.350403 0.000 0 0.000
43801.00 1203.18 100.138999 0.0000000000000000 0.000000 237.278674 -1177139.253205 29.890551 123.275684 -19.858170 1353.538786 -7.400 -7.400 0.000000 3.350189 0.000 0 0.000
43701.00 1203.01 100.138999 0.0000000000000000 0.000000 237.278674 -1177438.168277 29.892463 123.281270 -19.865039 1353.477109 -7.404 -7.404 0.000000 3.349975 0.000 0 0.000
43601.00 1202.83 100.138999 0.0000000000000000 0.000000 237.278674 -1177737.102478 29.894377 123.286856 -19.871912 1353.415541 -7.409 -7.409 0.000000 3.349760 0.000 0 0.000
43501.00 1202.66 100.138999 0.0000000000000000 0.000000 237.278674 -1178036.055824 29.896293 123.292441 -19.878789 1353.354083 -7.413 -7.413 0.000000 3.349546 0.000 0 0.000
43401.00 1202.49 100.138999 0.0000000000000000 0.000000 237.278674 -1178335.028334 29.898210 123.298027 -19.885669 1353.292737 -7.418 -7.418 0.000000 3.349331 0.000 0 0.000
43301.00 1202.32 100.138999 0.0000000000000000 0.000000 237.278674 -1178634.020026 29.900129 123.303611 -19.892553 1353.231502 -7.423 -7.423 0.000000 3.349116 0.000 0 0.000
43201.00 1202.14 100.138999 0.0000000000000000 0.000000 237.278674 -1178933.030917 29.902050 123.309196 -19.899441 1353.170379 -7.427 -7.427 0.000000 3.348901 0.000 0 0.000
43101.00 1201.97 100.138999 0.0000000000000000 0.000000 237.278674 -1179232.061025 29.903972 123.314780 -19.906332 1353.109371 -7.432 -7.432 0.000000 3.348686 0.000 0 0.000
43001.00 1201.80 100.138999 0.0000000000000000 0.000000 237.278674 -1179531.110369 29.905897 123.320364 -19.913228 1353.048476 -7.436 -7.436 0.000000 3.348470 0.000 0 0.000
42901.00 1201.63 100.138999 0.0000000000000000 0.000000 237.278674 -1179830.178966 29.907823 123.325947 -19.920127 1352.987697 -7.441 -7.441 0.000000 3.348254 0.000 0 0.000
42801.00 1201.45 100.138999 0.0000000000000000 0.000000 237.278674 -1180129.266835 29.909751 123.331531 -19.927030 1352.927035 -7.446 -7.446 0.000000 3.348039 0.000 0 0.000
42701.00 1201.28 100.138999 0.0000000000000000 0.000000 237.278674 -1180428.373994 29.911681 123.337114 -19.933936 1352.866489 -7.450 -7.450 0.000000 3.347823 0.000 0 0.000
42601.00 1201.11 100.138999 0.0000000000000000 0.000000 237.278674 -1180727.500462 29.913613 123.342697 -19.940847 1352.806061 -7.455 -7.455 0.000000 3.347606 0.000 0 0.000
42501.00 1200.94 100.138999 0.0000000000000000 0.000000 237.278674 -1181026.646257 29.915546 123.348279 -19.947761 1352.745752 -7.460 -7.460 0.000000 3.347390 0.000 0 0.000
42401.00 1200.76 100.138999 0.0000000000000000 0.000000 237.278674 -1181325.811397 29.917482 123.353861 -19.954680 1352.685564 -7.465 -7.465 0.000000 3.347173 0.000 0 0.000
42301.00 1200.59 100.138999 0.0000000000000000 0.000000 237.278674 -1181624.995902 29.919419 123.359443 -19.961603 1352.625496 -7.469 -7.469 0.000000 3.346957 0.000 0 0.000
42201.00 1200.42 100.138999 0.0000000000000000 0.000000 237.278674 -1181924.199791 29.921359 123.365025 -19.968529 1352.565550 -7.474 -7.474 0.000000 3.346740 0.000 0 0.000
42101.00 1200.25 100.138999 0.0000000000000000 0.000000 237.278674 -1182223.423083 29.923300 123.370607 -19.975460 1352.505726 -7.479 -7.479 0.000000 3.346523 0.000 0 0.000
42001.00 1200.07 100.138999 0.0000000000000000 0.000000 237.278674 -1182522.665796 29.925243 123.376189 -19.982395 1352.446027 -7.484 -7.484 0.000000 3.346305 0.000 0 0.000
41901.00 1199.90 100.138999 0.0000000000000000 0.000000 237.278674 -1182821.927950 29.927188 123.381770 -19.989334 1352.386452 -7.488 -7.488 0.000000 3.346088 0.000 0 0.000
41801.00 1199.73 100.138999 0.0000000000000000 0.000000 237.278674 -1183121.209564 29.929135 123.387351 -19.996277 1352.327004 -7.493 -7.493 0.000000 3.345870 0.000 0 0.000
41701.00 1199.55 100.138999 0.0000000000000000 0.000000 237.278674 -1183420.510657 29.931084 123.392932 -20.003225 1352.267682 -7.498 -7.498 0.000000 3.345652 0.000 0 0.000
41601.00 1199.38 100.138999 0.0000000000000000 0.000000 237.278674 -1183719.831250 29.933035 123.398513 -20.010176 1352.208488 -7.503 -7.503 0.000000 3.345434 0.000 0 0.000
41501.00 1199.21 100.138999 0.0000000000000000 0.000000 237.278674 -1184019.171362 29.934988 123.404094 -20.017132 1352.149424 -7.508 -7.508 0.000000 3.345216 0.000 0 0.000
41401.00 1199.04 100.138999 0.0000000000000000 0.000000 237.278674 -1184318.531013 29.936943 123.409675 -20.024093 1352.090489 -7.512 -7.512 0.000000 3.344998 0.000 0 0.000
41301.00 1198.86 100.138999 0.0000000000000000 0.000000 237.278674 -1184617.910223 29.938900 123.415256 -20.031058 1352.031686 -7.517 -7.517 0.000000 3.344779 0.000 0 0.000
41201.00 1198.69 100.138999 0.0000000000000000 0.000000 237.278674 -1184917.309011 29.940858 123.420836 -20.038027 1351.973014 -7.522 -7.522 0.000000 3.344560 0.000 0 0.000
41101.00 1198.52 100.138999 0.0000000000000000 0.000000 237.278674 -1185216.727398 29.942819 123.426417 -20.045000 1351.914477 -7.527 -7.527 0.000000 3.344341 0.000 0 0.000
41001.00 1198.35 100.138999 0.0000000000000000 0.000000 237.278674 -1185516.165405 29.944782 123.431998 -20.051979 1351.856074 -7.532 -7.532 0.000000 3.344122 0.000 0 0.000
40901.00 1198.17 100.138999 0.0000000000000000 0.000000 237.278674 -1185815.623051 29.946747 123.437578 -20.058961 1351.797806 -7.537 -7.537 0.000000 3.343902 0.000 0 0.000
40801.00 1198.00 100.138999 0.0000000000000000 0.000000 237.278674 -1186115.100358 29.948714 123.443159 -20.065949 1351.739676 -7.542 -7.542 0.000000 3.343683 0.000 0 0.000
40701.00 1197.83 100.138999 0.0000000000000000 0.000000 237.278674 -1186414.597345 29.950683 123.448739 -20.072941 1351.681683 -7.547 -7.547 0.000000 3.343463 0.000 0 0.000
40601.00 1197.65 100.138999 0.0000000000000000 0.000000 237.278674 -1186714.114034 29.952655 123.454320 -20.079938 1351.623830 -7.551 -7.551 0.000000 3.343243 0.000 0 0.000
40501.00 1197.48 100.138999 0.0000000000000000 0.000000 237.278674 -1187013.650447 29.954628 123.459901 -20.086939 1351.566117 -7.556 -7.556 0.000000 3.343023 0.000 0 0.000
40401.00 1197.31 100.138999 0.0000000000000000 0.000000 237.278674 -1187313.206603 29.956604 123.465481 -20.093945 1351.508546 -7.561 -7.561 0.000000 3.342802 0.000 0 0.000
40301.00 1197.14 100.138999 0.0000000000000000 0.000000 237.278674 -1187612.782524 29.958581 123.471062 -20.100956 1351.451118 -7.566 -7.566 0.000000 3.342582 0.000 0 0.000
40201.00 1196.96 100.138999 0.0000000000000000 0.000000 237.278674 -1187912.378232 29.960561 123.476643 -20.107972 1351.393834 -7.571 -7.571 0.000000 3.342361 0.000 0 0.000
40101.00 1196.79 100.138999 0.0000000000000000 0.000000 237.278674 -1188211.993748 29.962543 123.482224 -20.114993 1351.336695 -7.576 -7.576 0.000000 3.342140 0.000 0 0.000
40001.00 1196.62 100.138999 0.0000000000000000 0.000000 237.278674 -1188511.629093 29.964527 123.487806 -20.122019 1351.279704 -7.581 -7.581 0.000000 3.341918 0.000 0 0.000
39901.00 1196.44 100.138999 0.0000000000000000 0.000000 237.278674 -1188811.284290 29.966513 123.493387 -20.129050 1351.222860 -7.586 -7.586 0.000000 3.341697 0.000 0 0.000
39801.00 1196.27 100.138999 0.0000000000000000 0.000000 237.278674 -1189110.959361 29.968501 123.498969 -20.136085 1351.166166 -7.591 -7.591 0.000000 3.341475 0.000 0 0.000
39701.00 1196.10 100.138999 0.0000000000000000 0.000000 237.278674 -1189410.654327 29.970492 123.504550 -20.143126 1351.109622 -7.597 -7.597 0.000000 3.341253 0.000 0 0.000
39601.00 1195.92 100.138999 0.0000000000000000 0.000000 237.278674 -1189710.369212 29.972485 123.510132 -20.150172 1351.053231 -7.602 -7.602 0.000000 3.341031 0.000 0 0.000
39501.00 1195.75 100.138999 0.0000000000000000 0.000000 237.278674 -1190010.104036 29.974480 123.515715 -20.157224 1350.996993 -7.607 -7.607 0.000000 3.340809 0.000 0 0.000
39401.00 1195.58 100.138999 0.0000000000000000 0.000000 237.278674 -1190309.858824 29.976478 123.521297 -20.164280 1350.940911 -7.612 -7.612 0.000000 3.340586 0.000 0 0.000
39301.00 1195.40 100.138999 0.0000000000000000 0.000000 237.278674 -1190609.633597 29.978477 123.526880 -20.171342 1350.884984 -7.617 -7.617 0.000000 3.340363 0.000 0 0.000
39201.00 1195.23 100.138999 0.0000000000000000 0.000000 237.278674 -1190909.428379 29.980479 123.532463 -20.178409 1350.829216 -7.622 -7.622 0.000000 3.340140 0.000 0 0.000
39101.00 1195.06 100.138999 0.0000000000000000 0.000000 237.278674 -1191209.243193 29.982484 123.538046 -20.185482 1350.773606 -7.627 -7.627 0.000000 3.339917 0.000 0 0.000
39001.00 1194.88 100.138999 0.0000000000000000 0.000000 237.278674 -1191509.078061 29.984490 123.543630 -20.192560 1350.718158 -7.632 -7.632 0.000000 3.339693 0.000 0 0.000
38901.00 1194.71 100.138999 0.0000000000000000 0.000000 237.278674 -1191808.933008 29.986499 123.549214 -20.199644 1350.662871 -7.637 -7.637 0.000000 3.339469 0.000 0 0.000
38801.00 1194.54 100.138999 0.0000000000000000 0.000000 237.278674 -1192108.808056 29.988511 123.554799 -20.206733 1350.607749 -7.643 -7.643 0.000000 3.339245 0.000 0 0.000
38701.00 1194.36 100.138999 0.0000000000000000 0.000000 237.278674 -1192408.703230 29.990524 123.560384 -20.213828 1350.552792 -7.648 -7.648 0.000000 3.339021 0.000 0 0.000
38601.00 1194.19 100.138999 0.0000000000000000 0.000000 237.278674 -1192708.618554 29.992541 123.565969 -20.220928 1350.498002 -7.653 -7.653 0.000000 3.338797 0.000 0 0.000
38501.00 1194.02 100.138999 0.0000000000000000 0.000000 237.278674 -1193008.554051 29.994559 123.571555 -20.228034 1350.443380 -7.658 -7.658 0.000000 3.338572 0.000 0 0.000
38401.00 1193.84 100.138999 0.0000000000000000 0.000000 237.278674 -1193308.509747 29.996580 123.577141 -20.235146 1350.388929 -7.664 -7.664 0.000000 3.338347 0.000 0 0.000
38301.00 1193.67 100.138999 0.0000000000000000 0.000000 237.278674 -1193608.485664 29.998604 123.582728 -20.242264 1350.334649 -7.669 -7.669 0.000000 3.338122 0.000 0 0.000
38201.00 1193.50 100.138999 0.0000000000000000 0.000000 237.278674 -1193908.481829 30.000630 123.588315 -20.249388 1350.280543 -7.674 -7.674 0.000000 3.337897 0.000 0 0.000
38101.00 1193.32 100.138999 0.0000000000000000 0.000000 237.278674 -1194208.498265 30.002658 123.593903 -20.256518 1350.226612 -7.679 -7.679 0.000000 3.337671 0.000 0 0.000
38001.00 1193.15 100.138999 0.0000000000000000 0.000000 237.278674 -1194508.534998 30.004689 123.599491 -20.263654 1350.172858 -7.685 -7.685 0.000000 3.337445 0.000 0 0.000
37901.00 1192.98 100.138999 0.0000000000000000 0.000000 237.278674 -1194808.592053 30.006722 123.605080 -20.270796 1350.119283 -7.690 -7.690 0.000000 3.337219 0.000 0 0.000
37801.00 1192.80 100.138999 0.0000000000000000 0.000000 237.278674 -1195108.669456 30.008759 123.610670 -20.277944 1350.065888 -7.695 -7.695 0.000000 3.336992 0.000 0 0.000
37701.00 1192.63 100.138999 0.0000000000000000 0.000000 237.278674 -1195408.767232 30.010797 123.616260 -20.285098 1350.012676 -7.701 -7.701 0.000000 3.336766 0.000 0 0.000
37601.00 1192.45 100.138999 0.0000000000000000 0.000000 237.278674 -1195708.885407 30.012838 123.621851 -20.292258 1349.959647 -7.706 -7.706 0.000000 3.336539 0.000 0 0.000
37501.00 1192.28 100.138999 0.0000000000000000 0.000000 237.278674 -1196009.024007 30.014882 123.627443 -20.299425 1349.906805 -7.711 -7.711 0.000000 3.336312 0.000 0 0.000
37401.00 1192.11 100.138999 0.0000000000000000 0.000000 237.278674 -1196309.183058 30.016929 123.633035 -20.306599 1349.854150 -7.717 -7.717 0.000000 3.336084 0.000 0 0.000
37301.00 1191.93 100.138999 0.0000000000000000 0.000000 237.278674 -1196609.362586 30.018978 123.638628 -20.313779 1349.801685 -7.722 -7.722 0.000000 3.335856 0.000 0 0.000
37201.00 1191.76 100.138999 0.0000000000000000 0.000000 237.278674 -1196909.562619 30.021029 123.644222 -20.320965 1349.749412 -7.728 -7.728 0.000000 3.335628 0.000 0 0.000
37101.00 1191.59 100.138999 0.0000000000000000 0.000000 237.278674 -1197209.783184 30.023084 123.649817 -20.328158 1349.697333 -7.733 -7.733 0.000000 3.335400 0.000 0 0.000
37001.00 1191.41 100.138999 0.0000000000000000 0.000000 237.278674 -1197510.024306 30.025141 123.655413 -20.335358 1349.645449 -7.739 -7.739 0.000000 3.335172 0.000 0 0.000
36901.00 1191.24 100.138999 0.0000000000000000 0.000000 237.278674 -1197810.286014 30.027201 123.661009 -20.342564 1349.593763 -7.744 -7.744 0.000000 3.334943 0.000 0 0.000
36801.00 1191.06 100.138999 0.0000000000000000 0.000000 237.278674 -1198110.568336 30.029264 123.666607 -20.349778 1349.542277 -7.749 -7.749 0.000000 3.334714 0.000 0 0.000
36701.00 1190.89 100.138999 0.0000000000000000 0.000000 237.278674 -1198410.871298 30.031329 123.672205 -20.356998 1349.490993 -7.755 -7.755 0.000000 3.334484 0.000 0 0.000
36601.00 1190.71 100.138999 0.0000000000000000 0.000000 237.278674 -1198711.194930 30.033398 123.677804 -20.364225 1349.439913 -7.761 -7.761 0.000000 3.334255 0.000 0 0.000
36501.00 1190.54 100.138999 0.0000000000000000 0.000000 237.278674 -1199011.539259 30.035469 123.683405 -20.371459 1349.389039 -7.766 -7.766 0.000000 3.334025 0.000 0 0.000
36401.00 1190.37 100.138999 0.0000000000000000 0.000000 237.278674 -1199311.904314 30.037543 123.689006 -20.378701 1349.338373 -7.772 -7.772 0.000000 3.333795 0.000 0 0.000
36301.00 1190.19 100.138999 0.0000000000000000 0.000000 237.278674 -1199612.290123 30.039620 123.694609 -20.385950 1349.287919 -7.777 -7.777 0.000000 3.333564 0.000 0 0.000
36201.00 1190.02 100.138999 0.0000000000000000 0.000000 237.278674 -1199912.696716 30.041699 123.700212 -20.393206 1349.237677 -7.783 -7.783 0.000000 3.333333 0.000 0 0.000
36101.00 1189.84 100.138999 0.0000000000000000 0.000000 237.278674 -1200213.124123 30.043782 123.705817 -20.400469 1349.187650 -7.788 -7.788 0.000000 3.333102 0.000 0 0.000
36001.00 1189.67 100.138999 0.0000000000000000 0.000000 237.278674 -1200513.572371 30.045868 123.711423 -20.407740 1349.137842 -7.794 -7.794 0.000000 3.332871 0.000 0 0.000
35901.00 1189.49 100.138999 0.0000000000000000 0.000000 237.278674 -1200814.041492 30.047957 123.717030 -20.415018 1349.088253 -7.800 -7.800 0.000000 3.332639 0.000 0 0.000
35801.00 1189.32 100.138999 0.0000000000000000 0.000000 237.278674 -1201114.531516 30.050048 123.722639 -20.422304 1349.038887 -7.805 -7.805 0.000000 3.332407 0.000 0 0.000
35701.00 1189.15 100.138999 0.0000000000000000 0.000000 237.278674 -1201415.042472 30.052143 123.728248 -20.429598 1348.989746 -7.811 -7.811 0.000000 3.332175 0.000 0 0.000
35601.00 1188.97 100.138999 0.0000000000000000 0.000000 237.278674 -1201715.574392 30.054241 123.733859 -20.436899 1348.940833 -7.817 -7.817 0.000000 3.331942 0.000 0 0.000
35501.00 1188.80 100.138999 0.0000000000000000 0.000000 237.278674 -1202016.127307 30.056342 123.739472 -20.444209 1348.892150 -7.822 -7.822 0.000000 3.331709 0.000 0 0.000
35401.00 1188.62 100.138999 0.0000000000000000 0.000000 237.278674 -1202316.701246 30.058446 123.745086 -20.451526 1348.843699 -7.828 -7.828 0.000000 3.331476 0.000 0 0.000
35301.00 1188.45 100.138999 0.0000000000000000 0.000000 237.278674 -1202617.296244 30.060554 123.750701 -20.458851 1348.795484 -7.834 -7.834 0.000000 3.331243 0.000 0 0.000
35201.00 1188.27 100.138999 0.0000000000000000 0.000000 237.278674 -1202917.912330 30.062664 123.756318 -20.466185 1348.747507 -7.840 -7.840 0.000000 3.331009 0.000 0 0.000
35101.00 1188.10 100.138999 0.0000000000000000 0.000000 237.278674 -1203218.549537 30.064778 123.761936 -20.473527 1348.699771 -7.845 -7.845 0.000000 3.330775 0.000 0 0.000
35001.00 1187.92 100.138999 0.0000000000000000 0.000000 237.278674 -1203519.207897 30.066895 123.767556 -20.480877 1348.652279 -7.851 -7.851 0.000000 3.330540 0.000 0 0.000
34901.00 1187.75 100.138999 0.0000000000000000 0.000000 237.278674 -1203819.887444 30.069015 123.773178 -20.488236 1348.605033 -7.857 -7.857 0.000000 3.330305 0.000 0 0.000
34801.00 1187.57 100.138999 0.0000000000000000 0.000000 237.278674 -1204120.588211 30.071139 123.778801 -20.495603 1348.558037 -7.863 -7.863 0.000000 3.330070 0.000 0 0.000
34701.00 1187.40 100.138999 0.0000000000000000 0.000000 237.278674 -1204421.310230 30.073266 123.784426 -20.502979 1348.511293 -7.869 -7.869 0.000000 3.329835 0.000 0 0.000
34601.00 1187.22 100.138999 0.0000000000000000 0.000000 237.278674 -1204722.053535 30.075396 123.790053 -20.510364 1348.464805 -7.874 -7.874 0.000000 3.329599 0.000 0 0.000
34501.00 1187.05 100.138999 0.0000000000000000 0.000000 237.278674 -1205022.818162 30.077530 123.795681 -20.517757 1348.418575 -7.880 -7.880 0.000000 3.329362 0.000 0 0.000
34401.00 1186.87 100.138999 0.0000000000000000 0.000000 237.278674 -1205323.604143 30.079667 123.801311 -20.525159 1348.372607 -7.886 -7.886 0.000000 3.329126 0.000 0 0.000
34301.00 1186.70 100.138999 0.0000000000000000 0.000000 237.278674 -1205624.411514 30.081808 123.806944 -20.532571 1348.326904 -7.892 -7.892 0.000000 3.328889 0.000 0 0.000
34201.00 1186.52 100.138999 0.0000000000000000 0.000000 237.278674 -1205925.240310 30.083952 123.812578 -20.539992 1348.281469 -7.898 -7.898 0.000000 3.328652 0.000 0 0.000
34101.00 1186.34 100.138999 0.0000000000000000 0.000000 237.278674 -1206226.090567 30.086100 123.818215 -20.547422 1348.236305 -7.904 -7.904 0.000000 3.328414 0.000 0 0.000
34001.00 1186.17 100.138999 0.0000000000000000 0.000000 237.278674 -1206526.962320 30.088251 123.823853 -20.554861 1348.191416 -7.910 -7.910 0.000000 3.328176 0.000 0 0.000
33901.00 1185.99 100.138999 0.0000000000000000 0.000000 237.278674 -1206827.855605 30.090406 123.829494 -20.562310 1348.146806 -7.916 -7.916 0.000000 3.327938 0.000 0 0.000
33801.00 1185.82 100.138999 0.0000000000000000 0.000000 237.278674 -1207128.770460 30.092565 123.835136 -20.569769 1348.102477 -7.922 -7.922 0.000000 3.327699 0.000 0 0.000
33701.00 1185.64 100.138999 0.0000000000000000 0.000000 237.278674 -1207429.706921 30.094728 123.840781 -20.577237 1348.058433 -7.928 -7.928 0.000000 3.327460 0.000 0 0.000
33601.00 1185.47 100.138999 0.0000000000000000 0.000000 237.278674 -1207730.665026 30.096894 123.846429 -20.584715 1348.014678 -7.934 -7.934 0.000000 3.327220 0.000 0 0.000
33501.00 1185.29 100.138999 0.0000000000000000 0.000000 237.278674 -1208031.644813 30.099064 123.852078 -20.592203 1347.971216 -7.940 -7.940 0.000000 3.326980 0.000 0 0.000
33401.00 1185.11 100.138999 0.0000000000000000 0.000000 237.278674 -1208332.646320 30.101238 123.857730 -20.599702 1347.928051 -7.946 -7.946 0.000000 3.326740 0.000 0 0.000
33301.00 1184.94 100.138999 0.0000000000000000 0.000000 237.278674 -1208633.669585 30.103416 123.863385 -20.607210 1347.885185 -7.952 -7.952 0.000000 3.326500 0.000 0 0.000
33201.00 1184.76 100.138999 0.0000000000000000 0.000000 237.278674 -1208934.714649 30.105598 123.869042 -20.614729 1347.842624 -7.959 -7.959 0.000000 3.326258 0.000 0 0.000
33101.00 1184.59 100.138999 0.0000000000000000 0.000000 237.278674 -1209235.781549 30.107783 123.874702 -20.622259 1347.800372 -7.965 -7.965 0.000000 3.326017 0.000 0 0.000
33001.00 1184.41 100.138999 0.0000000000000000 0.000000 237.278674 -1209536.870328 30.109973 123.880365 -20.629799 1347.758431 -7.971 -7.971 0.000000 3.325775 0.000 0 0.000
32901.00 1184.23 100.138999 0.0000000000000000 0.000000 237.278674 -1209837.981024 30.112167 123.886030 -20.637350 1347.716807 -7.977 -7.977 0.000000 3.325533 0.000 0 0.000
32801.00 1184.06 100.138999 0.0000000000000000 0.000000 237.278674 -1210139.113679 30.114365 123.891698 -20.644912 1347.675504 -7.983 -7.983 0.000000 3.325290 0.000 0 0.000
