Title: Depleted MORB Mantle of Workmann & Hart 2005

System Thermodynamic Data:
Pressure Temperature mass F phi S H V Cp dVdP*10^6 dVdT*10^6 fO2(absolute) fO2(absolute) rhol rhos viscosity aH2O chisqr
44001.00 1295.50 100.138999 0.0000000000000000 0.000000 244.876696 -1164975.317333 30.023938 124.070295 -19.869114 1396.436993 -6.652 -6.652 0.000000 3.335305 0.000 0 0.000
43901.00 1295.31 100.138999 0.0000000000000000 0.000000 244.876696 -1165275.566303 30.025856 124.076418 -19.876073 1396.371741 -6.657 -6.657 0.000000 3.335092 0.000 0 0.000
43801.00 1295.12 100.138999 0.0000000000000000 0.000000 244.876696 -1165575.834470 30.027777 124.082540 -19.883036 1396.306621 -6.662 -6.662 0.000000 3.334879 0.000 0 0.000
43701.00 1294.94 100.138999 0.0000000000000000 0.000000 244.876696 -1165876.121855 30.029700 124.088662 -19.890004 1396.241634 -6.666 -6.666 0.000000 3.334665 0.000 0 0.000
43601.00 1294.75 100.138999 0.0000000000000000 0.000000 244.876696 -1166176.428477 30.031625 124.094784 -19.896976 1396.176782 -6.671 -6.671 0.000000 3.334452 0.000 0 0.000
43501.00 1294.56 100.138999 0.0000000000000000 0.000000 244.876696 -1166476.754358 30.033552 124.100907 -19.903953 1396.112065 -6.676 -6.676 0.000000 3.334238 0.000 0 0.000
43401.00 1294.37 100.138999 0.0000000000000000 0.000000 244.876696 -1166777.099517 30.035481 124.107029 -19.910934 1396.047484 -6.680 -6.680 0.000000 3.334024 0.000 0 0.000
43301.00 1294.18 100.138999 0.0000000000000000 0.000000 244.876696 -1167077.463975 30.037411 124.113151 -19.917919 1395.983041 -6.685 -6.685 0.000000 3.333809 0.000 0 0.000
43201.00 1293.99 100.138999 0.0000000000000000 0.000000 244.876696 -1167377.847752 30.039344 124.119273 -19.924909 1395.918737 -6.690 -6.690 0.000000 3.333595 0.000 0 0.000
43101.00 1293.80 100.138999 0.0000000000000000 0.000000 244.876696 -1167678.250871 30.041280 124.125396 -19.931903 1395.854572 -6.694 -6.694 0.000000 3.333380 0.000 0 0.000
43001.00 1293.61 100.138999 0.0000000000000000 0.000000 244.876696 -1167978.673350 30.043217 124.131518 -19.938902 1395.790549 -6.699 -6.699 0.000000 3.333165 0.000 0 0.000
42901.00 1293.42 100.138999 0.0000000000000000 0.000000 244.876696 -1168279.115213 30.045156 124.137641 -19.945905 1395.726667 -6.704 -6.704 0.000000 3.332950 0.000 0 0.000
42801.00 1293.23 100.138999 0.0000000000000000 0.000000 244.876696 -1168579.576478 30.047097 124.143763 -19.952914 1395.662929 -6.709 -6.709 0.000000 3.332735 0.000 0 0.000
42701.00 1293.04 100.138999 0.0000000000000000 0.000000 244.876696 -1168880.057169 30.049041 124.149886 -19.959926 1395.599335 -6.714 -6.714 0.000000 3.332519 0.000 0 0.000
42601.00 1292.85 100.138999 0.0000000000000000 0.000000 244.876696 -1169180.557306 30.050987 124.156009 -19.966944 1395.535888 -6.718 -6.718 0.000000 3.332303 0.000 0 0.000
42501.00 1292.66 100.138999 0.0000000000000000 0.000000 244.876696 -1169481.076911 30.052935 124.162132 -19.973967 1395.472587 -6.723 -6.723 0.000000 3.332087 0.000 0 0.000
42401.00 1292.47 100.138999 0.0000000000000000 0.000000 244.876696 -1169781.616006 30.054885 124.168256 -19.980994 1395.409434 -6.728 -6.728 0.000000 3.331871 0.000 0 0.000
42301.00 1292.28 100.138999 0.0000000000000000 0.000000 244.876696 -1170082.174612 30.056837 124.174379 -19.988026 1395.346431 -6.733 -6.733 0.000000 3.331655 0.000 0 0.000
42201.00 1292.10 100.138999 0.0000000000000000 0.000000 244.876696 -1170382.752752 30.058791 124.180503 -19.995063 1395.283578 -6.738 -6.738 0.000000 3.331438 0.000 0 0.000
42101.00 1291.91 100.138999 0.0000000000000000 0.000000 244.876696 -1170683.350448 30.060748 124.186627 -20.002105 1395.220878 -6.742 -6.742 0.000000 3.331221 0.000 0 0.000
42001.00 1291.72 100.138999 0.0000000000000000 0.000000 244.876696 -1170983.967722 30.062707 124.192751 -20.009152 1395.158331 -6.747 -6.747 0.000000 3.331004 0.000 0 0.000
41901.00 1291.53 100.138999 0.0000000000000000 0.000000 244.876696 -1171284.604596 30.064668 124.198876 -20.016204 1395.095938 -6.752 -6.752 0.000000 3.330787 0.000 0 0.000
41801.00 1291.34 100.138999 0.0000000000000000 0.000000 244.876696 -1171585.261093 30.066632 124.205001 -20.023261 1395.033702 -6.757 -6.757 0.000000 3.330569 0.000 0 0.000
41701.00 1291.15 100.138999 0.0000000000000000 0.000000 244.876696 -1171885.937236 30.068597 124.211126 -20.030324 1394.971623 -6.762 -6.762 0.000000 3.330352 0.000 0 0.000
41601.00 1290.96 100.138999 0.0000000000000000 0.000000 244.876696 -1172186.633047 30.070565 124.217252 -20.037391 1394.909702 -6.767 -6.767 0.000000 3.330134 0.000 0 0.000
41501.00 1290.77 100.138999 0.0000000000000000 0.000000 244.876696 -1172487.348551 30.072536 124.223378 -20.044464 1394.847942 -6.772 -6.772 0.000000 3.329915 0.000 0 0.000
41401.00 1290.58 100.138999 0.0000000000000000 0.000000 244.876696 -1172788.083769 30.074508 124.229504 -20.051542 1394.786344 -6.777 -6.777 0.000000 3.329697 0.000 0 0.000
41301.00 1290.39 100.138999 0.0000000000000000 0.000000 244.876696 -1173088.838725 30.076483 124.235631 -20.058625 1394.724908 -6.782 -6.782 0.000000 3.329478 0.000 0 0.000
41201.00 1290.20 100.138999 0.0000000000000000 0.000000 244.876696 -1173389.613443 30.078461 124.241758 -20.065714 1394.663637 -6.787 -6.787 0.000000 3.329259 0.000 0 0.000
41101.00 1290.01 100.138999 0.0000000000000000 0.000000 244.876696 -1173690.407947 30.080440 124.247886 -20.072808 1394.602532 -6.792 -6.792 0.000000 3.329040 0.000 0 0.000
41001.00 1289.82 100.138999 0.0000000000000000 0.000000 244.876696 -1173991.222260 30.082423 124.254014 -20.079908 1394.541594 -6.797 -6.797 0.000000 3.328821 0.000 0 0.000
40901.00 1289.63 100.138999 0.0000000000000000 0.000000 244.876696 -1174292.056406 30.084407 124.260143 -20.087014 1394.480826 -6.802 -6.802 0.000000 3.328601 0.000 0 0.000
40801.00 1289.44 100.138999 0.0000000000000000 0.000000 244.876696 -1174592.910410 30.086394 124.266272 -20.094124 1394.420228 -6.807 -6.807 0.000000 3.328382 0.000 0 0.000
40701.00 1289.25 100.138999 0.0000000000000000 0.000000 244.876696 -1174893.784295 30.088383 124.272402 -20.101241 1394.359802 -6.812 -6.812 0.000000 3.328161 0.000 0 0.000
40601.00 1289.06 100.138999 0.0000000000000000 0.000000 244.876696 -1175194.678087 30.090375 124.278532 -20.108363 1394.299549 -6.817 -6.817 0.000000 3.327941 0.000 0 0.000
40501.00 1288.87 100.138999 0.0000000000000000 0.000000 244.876696 -1175495.591810 30.092370 124.284663 -20.115491 1394.239472 -6.822 -6.822 0.000000 3.327721 0.000 0 0.000
40401.00 1288.68 100.138999 0.0000000000000000 0.000000 244.876696 -1175796.525490 30.094367 124.290795 -20.122625 1394.179572 -6.827 -6.827 0.000000 3.327500 0.000 0 0.000
40301.00 1288.49 100.138999 0.0000000000000000 0.000000 244.876696 -1176097.479150 30.096366 124.296927 -20.129765 1394.119851 -6.832 -6.832 0.000000 3.327279 0.000 0 0.000
40201.00 1288.30 100.138999 0.0000000000000000 0.000000 244.876696 -1176398.452817 30.098368 124.303060 -20.136911 1394.060310 -6.837 -6.837 0.000000 3.327057 0.000 0 0.000
40101.00 1288.11 100.138999 0.0000000000000000 0.000000 244.876696 -1176699.446515 30.100372 124.309194 -20.144063 1394.000951 -6.842 -6.842 0.000000 3.326836 0.000 0 0.000
40001.00 1287.92 100.138999 0.0000000000000000 0.000000 244.876696 -1177000.460271 30.102379 124.315328 -20.151220 1393.941775 -6.848 -6.848 0.000000 3.326614 0.000 0 0.000
39901.00 1287.73 100.138999 0.0000000000000000 0.000000 244.876696 -1177301.494110 30.104389 124.321464 -20.158384 1393.882785 -6.853 -6.853 0.000000 3.326392 0.000 0 0.000
39801.00 1287.54 100.138999 0.0000000000000000 0.000000 244.876696 -1177602.548059 30.106401 124.327600 -20.165554 1393.823983 -6.858 -6.858 0.000000 3.326170 0.000 0 0.000
39701.00 1287.35 100.138999 0.0000000000000000 0.000000 244.876696 -1177903.622143 30.108416 124.333737 -20.172731 1393.765369 -6.863 -6.863 0.000000 3.325947 0.000 0 0.000
39601.00 1287.16 100.138999 0.0000000000000000 0.000000 244.876696 -1178204.716389 30.110434 124.339874 -20.179913 1393.706946 -6.868 -6.868 0.000000 3.325724 0.000 0 0.000
39501.00 1286.97 100.138999 0.0000000000000000 0.000000 244.876696 -1178505.830824 30.112454 124.346013 -20.187102 1393.648716 -6.873 -6.873 0.000000 3.325501 0.000 0 0.000
39401.00 1286.78 100.138999 0.0000000000000000 0.000000 244.876696 -1178806.965474 30.114477 124.352152 -20.194298 1393.590681 -6.879 -6.879 0.000000 3.325278 0.000 0 0.000
39301.00 1286.59 100.138999 0.0000000000000000 0.000000 244.876696 -1179108.120367 30.116502 124.358293 -20.201500 1393.532842 -6.884 -6.884 0.000000 3.325054 0.000 0 0.000
39201.00 1286.40 100.138999 0.0000000000000000 0.000000 244.876696 -1179409.295530 30.118531 124.364434 -20.208708 1393.475202 -6.889 -6.889 0.000000 3.324830 0.000 0 0.000
39101.00 1286.21 100.138999 0.0000000000000000 0.000000 244.876696 -1179710.490990 30.120562 124.370577 -20.215923 1393.417762 -6.895 -6.895 0.000000 3.324606 0.000 0 0.000
39001.00 1286.02 100.138999 0.0000000000000000 0.000000 244.876696 -1180011.706775 30.122596 124.376720 -20.223145 1393.360525 -6.900 -6.900 0.000000 3.324381 0.000 0 0.000
38901.00 1285.82 100.138999 0.0000000000000000 0.000000 244.876696 -1180312.942913 30.124632 124.382865 -20.230374 1393.303493 -6.905 -6.905 0.000000 3.324157 0.000 0 0.000
38801.00 1285.63 100.138999 0.0000000000000000 0.000000 244.876696 -1180614.199433 30.126672 124.389010 -20.237609 1393.246667 -6.910 -6.910 0.000000 3.323932 0.000 0 0.000
38701.00 1285.44 100.138999 0.0000000000000000 0.000000 244.876696 -1180915.476361 30.128714 124.395157 -20.244852 1393.190049 -6.916 -6.916 0.000000 3.323706 0.000 0 0.000
38601.00 1285.25 100.138999 0.0000000000000000 0.000000 244.876696 -1181216.773728 30.130760 124.401305 -20.252101 1393.133643 -6.921 -6.921 0.000000 3.323481 0.000 0 0.000
38501.00 1285.06 100.138999 0.0000000000000000 0.000000 244.876696 -1181518.091562 30.132808 124.407454 -20.259357 1393.077450 -6.927 -6.927 0.000000 3.323255 0.000 0 0.000
38401.00 1284.87 100.138999 0.0000000000000000 0.000000 244.876696 -1181819.429892 30.134859 124.413604 -20.266621 1393.021472 -6.932 -6.932 0.000000 3.323029 0.000 0 0.000
38301.00 1284.68 100.138999 0.0000000000000000 0.000000 244.876696 -1182120.788748 30.136913 124.419756 -20.273892 1392.965711 -6.937 -6.937 0.000000 3.322802 0.000 0 0.000
38201.00 1284.49 100.138999 0.0000000000000000 0.000000 244.876696 -1182422.168159 30.138970 124.425909 -20.281170 1392.910171 -6.943 -6.943 0.000000 3.322575 0.000 0 0.000
38101.00 1284.30 100.138999 0.0000000000000000 0.000000 244.876696 -1182723.568155 30.141030 124.432063 -20.288455 1392.854852 -6.948 -6.948 0.000000 3.322348 0.000 0 0.000
38001.00 1284.11 100.138999 0.0000000000000000 0.000000 244.876696 -1183024.988766 30.143093 124.438219 -20.295748 1392.799758 -6.954 -6.954 0.000000 3.322121 0.000 0 0.000
37901.00 1283.92 100.138999 0.0000000000000000 0.000000 244.876696 -1183326.430022 30.145159 124.444376 -20.303048 1392.744890 -6.959 -6.959 0.000000 3.321893 0.000 0 0.000
37801.00 1283.72 100.138999 0.0000000000000000 0.000000 244.876696 -1183627.891955 30.147228 124.450535 -20.310356 1392.690252 -6.965 -6.965 0.000000 3.321665 0.000 0 0.000
37701.00 1283.53 100.138999 0.0000000000000000 0.000000 244.876696 -1183929.374595 30.149300 124.456695 -20.317672 1392.635846 -6.970 -6.970 0.000000 3.321437 0.000 0 0.000
37601.00 1283.34 100.138999 0.0000000000000000 0.000000 244.876696 -1184230.877973 30.151376 124.462857 -20.324995 1392.581674 -6.976 -6.976 0.000000 3.321208 0.000 0 0.000
37501.00 1283.15 100.138999 0.0000000000000000 0.000000 244.876696 -1184532.402121 30.153454 124.469020 -20.332326 1392.527739 -6.981 -6.981 0.000000 3.320979 0.000 0 0.000
37401.00 1282.96 100.138999 0.0000000000000000 0.000000 244.876696 -1184833.947070 30.155536 124.475185 -20.339665 1392.474043 -6.987 -6.987 0.000000 3.320750 0.000 0 0.000
37301.00 1282.77 100.138999 0.0000000000000000 0.000000 244.876696 -1185135.512853 30.157621 124.481352 -20.347012 1392.420589 -6.992 -6.992 0.000000 3.320521 0.000 0 0.000
37201.00 1282.58 100.138999 0.0000000000000000 0.000000 244.876696 -1185437.099502 30.159709 124.487520 -20.354368 1392.367380 -6.998 -6.998 0.000000 3.320291 0.000 0 0.000
37101.00 1282.39 100.138999 0.0000000000000000 0.000000 244.876696 -1185738.707050 30.161801 124.493690 -20.361731 1392.314418 -7.004 -7.004 0.000000 3.320060 0.000 0 0.000
37001.00 1282.19 100.138999 0.0000000000000000 0.000000 244.876696 -1186040.335529 30.163896 124.499862 -20.369103 1392.261707 -7.009 -7.009 0.000000 3.319830 0.000 0 0.000
36901.00 1282.00 100.138999 0.0000000000000000 0.000000 244.876696 -1186341.984973 30.165994 124.506035 -20.376483 1392.209248 -7.015 -7.015 0.000000 3.319599 0.000 0 0.000
36801.00 1281.81 100.138999 0.0000000000000000 0.000000 244.876696 -1186643.655415 30.168095 124.512211 -20.383872 1392.157046 -7.021 -7.021 0.000000 3.319368 0.000 0 0.000
36701.00 1281.62 100.138999 0.0000000000000000 0.000000 244.876696 -1186945.346890 30.170200 124.518389 -20.391269 1392.105102 -7.026 -7.026 0.000000 3.319136 0.000 0 0.000
36601.00 1281.43 100.138999 0.0000000000000000 0.000000 244.876696 -1187247.059431 30.172309 124.524568 -20.398675 1392.053420 -7.032 -7.032 0.000000 3.318904 0.000 0 0.000
36501.00 1281.23 100.138999 0.0000000000000000 0.000000 244.876696 -1187548.793073 30.174420 124.530750 -20.406089 1392.002003 -7.038 -7.038 0.000000 3.318672 0.000 0 0.000
36401.00 1281.04 100.138999 0.0000000000000000 0.000000 244.876696 -1187850.547851 30.176536 124.536934 -20.413513 1391.950854 -7.043 -7.043 0.000000 3.318439 0.000 0 0.000
36301.00 1280.85 100.138999 0.0000000000000000 0.000000 244.876696 -1188152.323800 30.178655 124.543120 -20.420945 1391.899976 -7.049 -7.049 0.000000 3.318206 0.000 0 0.000
36201.00 1280.66 100.138999 0.0000000000000000 0.000000 244.876696 -1188454.120957 30.180777 124.549308 -20.428387 1391.849373 -7.055 -7.055 0.000000 3.317973 0.000 0 0.000
36101.00 1280.47 100.138999 0.0000000000000000 0.000000 244.876696 -1188755.939356 30.182903 124.555498 -20.435838 1391.799046 -7.061 -7.061 0.000000 3.317739 0.000 0 0.000
36001.00 1280.27 100.138999 0.0000000000000000 0.000000 244.876696 -1189057.779033 30.185033 124.561691 -20.443298 1391.749001 -7.067 -7.067 0.000000 3.317505 0.000 0 0.000
35901.00 1280.08 100.138999 0.0000000000000000 0.000000 244.876696 -1189359.640027 30.187166 124.567886 -20.450767 1391.699240 -7.072 -7.072 0.000000 3.317271 0.000 0 0.000
35801.00 1279.89 100.138999 0.0000000000000000 0.000000 244.876696 -1189661.522374 30.189304 124.574083 -20.458246 1391.649766 -7.078 -7.078 0.000000 3.317036 0.000 0 0.000
35701.00 1279.70 100.138999 0.0000000000000000 0.000000 244.876696 -1189963.426110 30.191444 124.580283 -20.465735 1391.600583 -7.084 -7.084 0.000000 3.316801 0.000 0 0.000
35601.00 1279.50 100.138999 0.0000000000000000 0.000000 244.876696 -1190265.351275 30.193589 124.586486 -20.473233 1391.551695 -7.090 -7.090 0.000000 3.316565 0.000 0 0.000
35501.00 1279.31 100.138999 0.0000000000000000 0.000000 244.876696 -1190567.297906 30.195738 124.592691 -20.480741 1391.503106 -7.096 -7.096 0.000000 3.316329 0.000 0 0.000
35401.00 1279.12 100.138999 0.0000000000000000 0.000000 244.876696 -1190869.266041 30.197890 124.598899 -20.488259 1391.454818 -7.102 -7.102 0.000000 3.316093 0.000 0 0.000
35301.00 1278.93 100.138999 0.0000000000000000 0.000000 244.876696 -1191171.255721 30.200046 124.605109 -20.495787 1391.406836 -7.108 -7.108 0.000000 3.315856 0.000 0 0.000
35201.00 1278.73 100.138999 0.0000000000000000 0.000000 244.876696 -1191473.266983 30.202207 124.611322 -20.503326 1391.359164 -7.114 -7.114 0.000000 3.315619 0.000 0 0.000
35101.00 1278.54 100.138999 0.0000000000000000 0.000000 244.876696 -1191775.299869 30.204371 124.617539 -20.510875 1391.311804 -7.120 -7.120 0.000000 3.315381 0.000 0 0.000
35001.00 1278.35 100.138999 0.0000000000000000 0.000000 244.876696 -1192077.354419 30.206539 124.623758 -20.518434 1391.264763 -7.126 -7.126 0.000000 3.315143 0.000 0 0.000
34901.00 1278.15 100.138999 0.0000000000000000 0.000000 244.876696 -1192379.430673 30.208712 124.629980 -20.526004 1391.218043 -7.132 -7.132 0.000000 3.314905 0.000 0 0.000
34801.00 1277.96 100.138999 0.0000000000000000 0.000000 244.876696 -1192681.528672 30.210889 124.636205 -20.533585 1391.171648 -7.138 -7.138 0.000000 3.314666 0.000 0 0.000
34701.00 1277.77 100.138999 0.0000000000000000 0.000000 244.876696 -1192983.648458 30.213069 124.642433 -20.541176 1391.125583 -7.144 -7.144 0.000000 3.314427 0.000 0 0.000
34601.00 1277.58 100.138999 0.0000000000000000 0.000000 244.876696 -1193285.790073 30.215254 124.648665 -20.548779 1391.079853 -7.150 -7.150 0.000000 3.314187 0.000 0 0.000
34501.00 1277.38 100.138999 0.0000000000000000 0.000000 244.876696 -1193587.953561 30.217444 124.654900 -20.556392 1391.034461 -7.156 -7.156 0.000000 3.313947 0.000 0 0.000
34401.00 1277.19 100.138999 0.0000000000000000 0.000000 244.876696 -1193890.138963 30.219637 124.661138 -20.564017 1390.989412 -7.162 -7.162 0.000000 3.313706 0.000 0 0.000
34301.00 1276.99 100.138999 0.0000000000000000 0.000000 244.876696 -1194192.346324 30.221835 124.667380 -20.571654 1390.944710 -7.168 -7.168 0.000000 3.313465 0.000 0 0.000
34201.00 1276.80 100.138999 0.0000000000000000 0.000000 244.876696 -1194494.575687 30.224038 124.673625 -20.579302 1390.900361 -7.175 -7.175 0.000000 3.313224 0.000 0 0.000
34101.00 1276.61 100.138999 0.0000000000000000 0.000000 244.876696 -1194796.827098 30.226245 124.679874 -20.586961 1390.856368 -7.181 -7.181 0.000000 3.312982 0.000 0 0.000
34001.00 1276.41 100.138999 0.0000000000000000 0.000000 244.876696 -1195099.100601 30.228456 124.686126 -20.594633 1390.812738 -7.187 -7.187 0.000000 3.312739 0.000 0 0.000
33901.00 1276.22 100.138999 0.0000000000000000 0.000000 244.876696 -1195401.396243 30.230673 124.692382 -20.602317 1390.769474 -7.193 -7.193 0.000000 3.312497 0.000 0 0.000
33801.00 1276.03 100.138999 0.0000000000000000 0.000000 244.876696 -1195703.714068 30.232893 124.698643 -20.610012 1390.726582 -7.200 -7.200 0.000000 3.312253 0.000 0 0.000
33701.00 1275.83 100.138999 0.0000000000000000 0.000000 244.876696 -1196006.054125 30.235119 124.704907 -20.617721 1390.684066 -7.206 -7.206 0.000000 3.312009 0.000 0 0.000
33601.00 1275.64 100.138999 0.0000000000000000 0.000000 244.876696 -1196308.416460 30.237349 124.711175 -20.625441 1390.641933 -7.212 -7.212 0.000000 3.311765 0.000 0 0.000
33501.00 1275.44 100.138999 0.0000000000000000 0.000000 244.876696 -1196610.801122 30.239584 124.717447 -20.633175 1390.600187 -7.219 -7.219 0.000000 3.311520 0.000 0 0.000
33401.00 1275.25 100.138999 0.0000000000000000 0.000000 244.876696 -1196913.208159 30.241824 124.723724 -20.640921 1390.558835 -7.225 -7.225 0.000000 3.311275 0.000 0 0.000
33301.00 1275.05 100.138999 0.0000000000000000 0.000000 244.876696 -1197215.637620 30.244069 124.730004 -20.648680 1390.517881 -7.231 -7.231 0.000000 3.311029 0.000 0 0.000
33201.00 1274.86 100.138999 0.0000000000000000 0.000000 244.876696 -1197518.089554 30.246319 124.736290 -20.656453 1390.477331 -7.238 -7.238 0.000000 3.310783 0.000 0 0.000
33101.00 1274.66 100.138999 0.0000000000000000 0.000000 244.876696 -1197820.564014 30.248574 124.742579 -20.664239 1390.437191 -7.244 -7.244 0.000000 3.310536 0.000 0 0.000
33001.00 1274.47 100.138999 0.0000000000000000 0.000000 244.876696 -1198123.061048 30.250834 124.748874 -20.672038 1390.397468 -7.251 -7.251 0.000000 3.310289 0.000 0 0.000
32901.00 1274.27 100.138999 0.0000000000000000 0.000000 244.876696 -1198425.580710 30.253099 124.755173 -20.679852 1390.358166 -7.257 -7.257 0.000000 3.310041 0.000 0 0.000
32801.00 1274.08 100.138999 0.0000000000000000 0.000000 244.876696 -1198728.123051 30.255370 124.761477 -20.687679 1390.319293 -7.264 -7.264 0.000000 3.309793 0.000 0 0.000
