Title: Depleted MORB Mantle of Workmann & Hart 2005

Liquid Composition:
Pressure Temperature mass SiO2 TiO2 Al2O3 Fe2O3 Cr2O3 FeO MnO MgO NiO CaO Na2O 
44001.00 1268.41 0.000000 ---
43901.00 1268.23 0.000000 ---
43801.00 1268.04 0.000000 ---
43701.00 1267.86 0.000000 ---
43601.00 1267.67 0.000000 ---
43501.00 1267.49 0.000000 ---
43401.00 1267.31 0.000000 ---
43301.00 1267.12 0.000000 ---
43201.00 1266.94 0.000000 ---
43101.00 1266.75 0.000000 ---
43001.00 1266.57 0.000000 ---
42901.00 1266.38 0.000000 ---
42801.00 1266.20 0.000000 ---
42701.00 1266.02 0.000000 ---
42601.00 1265.83 0.000000 ---
42501.00 1265.65 0.000000 ---
42401.00 1265.46 0.000000 ---
42301.00 1265.28 0.000000 ---
42201.00 1265.09 0.000000 ---
42101.00 1264.91 0.000000 ---
42001.00 1264.73 0.000000 ---
41901.00 1264.54 0.000000 ---
41801.00 1264.36 0.000000 ---
41701.00 1264.17 0.000000 ---
41601.00 1263.99 0.000000 ---
41501.00 1263.80 0.000000 ---
41401.00 1263.62 0.000000 ---
41301.00 1263.43 0.000000 ---
41201.00 1263.25 0.000000 ---
41101.00 1263.06 0.000000 ---
41001.00 1262.88 0.000000 ---
40901.00 1262.69 0.000000 ---
40801.00 1262.51 0.000000 ---
40701.00 1262.33 0.000000 ---
40601.00 1262.14 0.000000 ---
40501.00 1261.96 0.000000 ---
40401.00 1261.77 0.000000 ---
40301.00 1261.59 0.000000 ---
40201.00 1261.40 0.000000 ---
40101.00 1261.22 0.000000 ---
40001.00 1261.03 0.000000 ---
39901.00 1260.85 0.000000 ---
39801.00 1260.66 0.000000 ---
39701.00 1260.48 0.000000 ---
39601.00 1260.29 0.000000 ---
39501.00 1260.11 0.000000 ---
39401.00 1259.92 0.000000 ---
39301.00 1259.74 0.000000 ---
39201.00 1259.55 0.000000 ---
39101.00 1259.36 0.000000 ---
39001.00 1259.18 0.000000 ---
38901.00 1258.99 0.000000 ---
38801.00 1258.81 0.000000 ---
38701.00 1258.62 0.000000 ---
38601.00 1258.44 0.000000 ---
38501.00 1258.25 0.000000 ---
38401.00 1258.07 0.000000 ---
38301.00 1257.88 0.000000 ---
38201.00 1257.70 0.000000 ---
38101.00 1257.51 0.000000 ---
38001.00 1257.32 0.000000 ---
37901.00 1257.14 0.000000 ---
37801.00 1256.95 0.000000 ---
37701.00 1256.77 0.000000 ---
37601.00 1256.58 0.000000 ---
37501.00 1256.39 0.000000 ---
37401.00 1256.21 0.000000 ---
37301.00 1256.02 0.000000 ---
37201.00 1255.84 0.000000 ---
37101.00 1255.65 0.000000 ---
37001.00 1255.46 0.000000 ---
36901.00 1255.28 0.000000 ---
36801.00 1255.09 0.000000 ---
36701.00 1254.90 0.000000 ---
36601.00 1254.72 0.000000 ---
36501.00 1254.53 0.000000 ---
36401.00 1254.34 0.000000 ---
36301.00 1254.16 0.000000 ---
36201.00 1253.97 0.000000 ---
36101.00 1253.78 0.000000 ---
36001.00 1253.60 0.000000 ---
35901.00 1253.41 0.000000 ---
35801.00 1253.22 0.000000 ---
35701.00 1253.04 0.000000 ---
35601.00 1252.85 0.000000 ---
35501.00 1252.66 0.000000 ---
35401.00 1252.48 0.000000 ---
35301.00 1252.29 0.000000 ---
35201.00 1252.10 0.000000 ---
35101.00 1251.91 0.000000 ---
35001.00 1251.73 0.000000 ---
34901.00 1251.54 0.000000 ---
34801.00 1251.35 0.000000 ---
34701.00 1251.16 0.000000 ---
34601.00 1250.98 0.000000 ---
34501.00 1250.79 0.000000 ---
34401.00 1250.60 0.000000 ---
34301.00 1250.41 0.000000 ---
34201.00 1250.22 0.000000 ---
34101.00 1250.04 0.000000 ---
34001.00 1249.85 0.000000 ---
33901.00 1249.66 0.000000 ---
33801.00 1249.47 0.000000 ---
33701.00 1249.28 0.000000 ---
33601.00 1249.09 0.000000 ---
33501.00 1248.90 0.000000 ---
33401.00 1248.72 0.000000 ---
33301.00 1248.53 0.000000 ---
33201.00 1248.34 0.000000 ---
33101.00 1248.15 0.000000 ---
33001.00 1247.96 0.000000 ---
32901.00 1247.77 0.000000 ---
32801.00 1247.58 0.000000 ---
32701.00 1247.39 0.000000 ---
32601.00 1247.20 0.000000 ---
32501.00 1247.01 0.000000 ---
32401.00 1246.82 0.000000 ---
32301.00 1246.63 0.000000 ---
32201.00 1246.44 0.000000 ---
32101.00 1246.25 0.000000 ---
32001.00 1246.06 0.000000 ---
31901.00 1245.87 0.000000 ---
31801.00 1245.68 0.000000 ---
31701.00 1245.49 0.000000 ---
31601.00 1245.30 0.000000 ---
31501.00 1245.11 0.000000 ---
31401.00 1244.92 0.000000 ---
31301.00 1244.73 0.000000 ---
31201.00 1244.53 0.000000 ---
31101.00 1244.34 0.000000 ---
31001.00 1244.15 0.000000 ---
30901.00 1243.96 0.000000 ---
30801.00 1243.77 0.000000 ---
30701.00 1243.58 0.000000 ---
30601.00 1243.38 0.000000 ---
30501.00 1243.19 0.000000 ---
30401.00 1243.00 0.000000 ---
30301.00 1242.81 0.000000 ---
30201.00 1242.61 0.000000 ---
30101.00 1242.42 0.000000 ---
30001.00 1242.23 0.000000 ---
29901.00 1242.04 0.000000 ---
29801.00 1241.84 0.000000 ---
29701.00 1241.65 0.000000 ---
29601.00 1241.45 0.000000 ---
29501.00 1241.26 0.000000 ---
29401.00 1241.07 0.000000 ---
29301.00 1240.87 0.000000 ---
29201.00 1240.68 0.000000 ---
29101.00 1240.48 0.000000 ---
29001.00 1240.29 0.000000 ---
28901.00 1240.09 0.000000 ---
28801.00 1239.90 0.000000 ---
28701.00 1239.70 0.000000 ---
28601.00 1239.51 0.000000 ---
28501.00 1239.31 0.000000 ---
28401.00 1239.12 0.000000 ---
28301.00 1238.92 0.000000 ---
28201.00 1238.72 0.000000 ---
28101.00 1238.53 0.000000 ---
28001.00 1238.33 0.000000 ---
27901.00 1238.13 0.000000 ---
27801.00 1237.93 0.000000 ---
27701.00 1237.74 0.000000 ---
27601.00 1237.54 0.000000 ---
27501.00 1237.34 0.000000 ---
27401.00 1237.14 0.000000 ---
27301.00 1236.94 0.000000 ---
27201.00 1236.74 0.000000 ---
27101.00 1236.55 0.000000 ---
27001.00 1236.35 0.000000 ---
26901.00 1236.15 0.000000 ---
26801.00 1235.95 0.000000 ---
26701.00 1235.75 0.000000 ---
26601.00 1235.55 0.000000 ---
26501.00 1235.34 0.000000 ---
26401.00 1235.14 0.000000 ---
26301.00 1234.94 0.000000 ---
26201.00 1234.74 0.000000 ---
26101.00 1234.54 0.000000 ---
26001.00 1234.33 0.000000 ---
25901.00 1234.13 0.000000 ---
25801.00 1233.93 0.000000 ---
25701.00 1233.72 0.000000 ---
25601.00 1233.52 0.000000 ---
25501.00 1233.32 0.000000 ---
25401.00 1233.11 0.000000 ---
25301.00 1232.91 0.000000 ---
25201.00 1232.70 0.000000 ---
25101.00 1232.50 0.000000 ---
25001.00 1232.29 0.000000 ---
24901.00 1232.08 0.000000 ---
24801.00 1231.87 0.000000 ---
24701.00 1231.67 0.000000 ---
24601.00 1231.46 0.000000 ---
24501.00 1231.25 0.000000 ---
24401.00 1231.04 0.000000 ---
24301.00 1230.83 0.000000 ---
24201.00 1230.62 0.000000 ---
24101.00 1230.41 0.000000 ---
24001.00 1230.20 0.000000 ---
23901.00 1229.99 0.000000 ---
23801.00 1229.78 0.000000 ---
23701.00 1229.56 0.000000 ---
23601.00 1229.35 0.000000 ---
23501.00 1229.14 0.000000 ---
23401.00 1228.92 0.000000 ---
23301.00 1228.71 0.000000 ---
23201.00 1228.49 0.000000 ---
23101.00 1228.28 0.000000 ---
23001.00 1228.06 0.000000 ---
22901.00 1227.84 0.000000 ---
22801.00 1227.63 0.000000 ---
22701.00 1227.41 0.000000 ---
22601.00 1227.19 0.000000 ---
22501.00 1226.97 0.000000 ---
22401.00 1226.75 0.000000 ---
22301.00 1226.53 0.000000 ---
22201.00 1226.30 0.000000 ---
22101.00 1226.08 0.000000 ---
22001.00 1225.86 0.000000 ---
21901.00 1225.63 0.000000 ---
21801.00 1225.41 0.000000 ---
21701.00 1225.18 0.000000 ---
21601.00 1224.95 0.000000 ---
21501.00 1224.72 0.000000 ---
21401.00 1224.49 0.000000 ---
21301.00 1224.26 0.000000 ---
21201.00 1224.03 0.000000 ---
21101.00 1223.80 0.000000 ---
21001.00 1223.57 0.000000 ---
20901.00 1223.33 0.000000 ---
20801.00 1223.10 0.000000 ---
20701.00 1222.86 0.000000 ---
20601.00 1222.62 0.000000 ---
20501.00 1222.38 0.000000 ---
20401.00 1222.14 0.000000 ---
20301.00 1221.90 0.000000 ---
20201.00 1221.66 0.000000 ---
20101.00 1221.41 0.000000 ---
20001.00 1221.17 0.000000 ---
19901.00 1220.92 0.000000 ---
19801.00 1220.67 0.000000 ---
19701.00 1220.42 0.000000 ---
19601.00 1220.17 0.000000 ---
19501.00 1219.91 0.000000 ---
19401.00 1219.66 0.000000 ---
19301.00 1219.40 0.000000 ---
19201.00 1219.14 0.000000 ---
19101.00 1218.88 0.000000 ---
19001.00 1218.61 0.000000 ---
18901.00 1218.35 0.000000 ---
18801.00 1218.08 0.000000 ---
18701.00 1217.81 0.000000 ---
18601.00 1217.53 0.000000 ---
18501.00 1217.26 0.000000 ---
18401.00 1216.98 0.000000 ---
18301.00 1216.70 0.000000 ---
18201.00 1216.42 0.000000 ---
18101.00 1216.13 0.000000 ---
18001.00 1215.84 0.000000 ---
17901.00 1215.54 0.000000 ---
17801.00 1215.25 0.000000 ---
17701.00 1214.99 0.000000 ---
17601.00 1214.82 0.000000 ---
17501.00 1214.65 0.000000 ---
17401.00 1214.48 0.000000 ---
17301.00 1214.31 0.000000 ---
17201.00 1214.14 0.000000 ---
17101.00 1213.97 0.000000 ---
17001.00 1213.80 0.000000 ---
16901.00 1213.63 0.000000 ---
16801.00 1213.45 0.000000 ---
16701.00 1213.28 0.000000 ---
16601.00 1213.11 0.000000 ---
16501.00 1212.94 0.000000 ---
16401.00 1212.77 0.000000 ---
16301.00 1212.60 0.000000 ---
16201.00 1212.43 0.000000 ---
16101.00 1212.26 0.000000 ---
16001.00 1212.09 0.000000 ---
15901.00 1211.92 0.000000 ---
15801.00 1211.75 0.000000 ---
15701.00 1211.57 0.000000 ---
15601.00 1211.40 0.000000 ---
15501.00 1211.23 0.000000 ---
15401.00 1211.06 0.000000 ---
15301.00 1210.89 0.000000 ---
15201.00 1210.72 0.000000 ---
15101.00 1210.55 0.000000 ---
15001.00 1210.38 0.000000 ---
14901.00 1210.21 0.000000 ---
14801.00 1210.04 0.000000 ---
14701.00 1209.87 0.000000 ---
14601.00 1209.70 0.000000 ---
14501.00 1209.52 0.000000 ---
14401.00 1209.35 0.000000 ---
14301.00 1209.18 0.000000 ---
14201.00 1209.01 0.000000 ---
14101.00 1208.84 0.000000 ---
14001.00 1208.67 0.000000 ---
13901.00 1208.50 0.000000 ---
13801.00 1208.33 0.000000 ---
13701.00 1208.16 0.000000 ---
13601.00 1207.99 0.000000 ---
13501.00 1207.82 0.000000 ---
13401.00 1207.65 0.000000 ---
13301.00 1207.48 0.000000 ---
13201.00 1207.30 0.000000 ---
13101.00 1207.13 0.000000 ---
13001.00 1206.96 0.000000 ---
12901.00 1206.79 0.000000 ---
12801.00 1206.62 0.000000 ---
12701.00 1206.45 0.000000 ---
12601.00 1206.28 0.000000 ---
12501.00 1206.11 0.000000 ---
12401.00 1205.94 0.000000 ---
12301.00 1205.77 0.000000 ---
12201.00 1205.60 0.000000 ---
12101.00 1205.43 0.000000 ---
12001.00 1205.26 0.000000 ---
11901.00 1205.09 0.000000 ---
11801.00 1204.91 0.000000 ---
11701.00 1204.74 0.000000 ---
11601.00 1204.57 0.000000 ---
11501.00 1204.40 0.000000 ---
11401.00 1204.23 0.000000 ---
11301.00 1204.06 0.000000 ---
11201.00 1203.89 0.000000 ---
11101.00 1203.72 0.000000 ---
11001.00 1203.55 0.000000 ---
10901.00 1203.38 0.000000 ---
10801.00 1203.21 0.000000 ---
10701.00 1203.04 0.000000 ---
10601.00 1202.87 0.000000 ---
10501.00 1202.70 0.000000 ---
10401.00 1202.52 0.000000 ---
10301.00 1202.35 0.000000 ---
10201.00 1202.18 0.000000 ---
10101.00 1202.01 0.000000 ---
10001.00 1201.84 0.000000 ---
9901.00 1201.67 0.000000 ---
9801.00 1201.50 0.000000 ---
9701.00 1201.32 0.000000 ---
9601.00 1201.09 0.000000 ---
9501.00 1200.85 0.000000 ---
9401.00 1200.62 0.000000 ---
9301.00 1200.39 0.000000 ---
9201.00 1200.16 0.000000 ---
9101.00 1199.93 0.000000 ---
9001.00 1199.70 0.000000 ---
8901.00 1199.47 0.000000 ---
8801.00 1199.25 0.000000 ---
8701.00 1199.02 0.000000 ---
8601.00 1198.79 0.000000 ---
8501.00 1198.57 0.000000 ---
8401.00 1198.34 0.000000 ---
8301.00 1198.11 0.000000 ---
8201.00 1197.89 0.000000 ---
8101.00 1197.66 0.000000 ---
8001.00 1197.44 0.000000 ---
7901.00 1197.21 0.000000 ---
7801.00 1196.99 0.000000 ---
7701.00 1196.76 0.000000 ---
7601.00 1196.54 0.000000 ---
7501.00 1196.31 0.000000 ---
7401.00 1196.09 0.000000 ---
7301.00 1195.86 0.000000 ---
7201.00 1195.64 0.000000 ---
7101.00 1195.41 0.000000 ---
7001.00 1195.18 0.000000 ---
6901.00 1194.96 0.000000 ---
6801.00 1194.73 0.000000 ---
6701.00 1194.50 0.000000 ---
6601.00 1194.27 0.000000 ---
6501.00 1194.04 0.000000 ---
6401.00 1193.81 0.000000 ---
6301.00 1193.58 0.000000 ---
6201.00 1193.35 0.000000 ---
6101.00 1193.12 0.000000 ---
6001.00 1192.89 0.000000 ---
5901.00 1192.65 0.000000 ---
5801.00 1192.42 0.000000 ---
5701.00 1192.18 0.000000 ---
5601.00 1191.95 0.000000 ---
5501.00 1191.71 0.000000 ---
5401.00 1191.47 0.000000 ---
5301.00 1191.23 0.000000 ---
5201.00 1190.99 0.000000 ---
5101.00 1190.75 0.000000 ---
5001.00 1190.51 0.000000 ---
4901.00 1190.27 0.000000 ---
4801.00 1190.03 0.000000 ---
4701.00 1189.79 0.000000 ---
4601.00 1189.55 0.000000 ---
4501.00 1189.31 0.000000 ---
4401.00 1189.07 0.000000 ---
4301.00 1188.83 0.000000 ---
4201.00 1188.59 0.000000 ---
4101.00 1188.35 0.000000 ---
4001.00 1188.11 0.000000 ---
3901.00 1187.87 0.000000 ---
3801.00 1187.64 0.000000 ---
3701.00 1187.41 0.000000 ---
3601.00 1187.17 0.000000 ---
3501.00 1186.94 0.000000 ---
3401.00 1186.72 0.000000 ---
3301.00 1185.47 0.416868 56.3823 1.10547 18.1072 0.519788 0.0947459 3.6135 0.00363056 7.44254 0.00184113 10.2439 2.48511
3201.00 1184.04 0.914012 56.4656 1.08578 18.0848 0.525594 0.0937699 3.59009 0.00354976 7.41996 0.00179759 10.3098 2.41925
3101.00 1182.58 1.427489 56.553 1.06544 18.062 0.530859 0.0928613 3.5656 0.00347051 7.39603 0.0017549 10.3728 2.35615
3001.00 1181.10 1.520810 56.6433 1.04399 18.0395 0.535658 0.0919628 3.54042 0.00339237 7.37117 0.00171284 10.4342 2.29465
2901.00 1179.59 1.524307 56.7362 1.02135 18.0174 0.539997 0.0910618 3.51468 0.00331523 7.3455 0.00167137 10.4944 2.23446
2801.00 1178.07 1.527539 56.8316 0.997544 17.9958 0.543864 0.0901569 3.48841 0.00323909 7.31906 0.00163049 10.5533 2.17549
2701.00 1176.52 1.530517 56.9293 0.972625 17.9745 0.547248 0.0892466 3.46167 0.00316395 7.29189 0.0015902 10.6111 2.11765
2601.00 1174.95 1.533248 57.0292 0.946645 17.9538 0.550142 0.0883297 3.4345 0.00308981 7.26405 0.0015505 10.6679 2.06086
2501.00 1173.36 1.535740 57.1311 0.919661 17.9335 0.552541 0.0874047 3.40695 0.00301666 7.23557 0.00151138 10.7237 2.00501
2401.00 1171.75 1.537998 57.2349 0.891742 17.9137 0.554439 0.0864704 3.37908 0.0029445 7.20651 0.00147285 10.7788 1.95
2301.00 1170.12 1.540026 57.3403 0.862961 17.8944 0.555836 0.0855252 3.35093 0.00287332 7.17692 0.00143489 10.8331 1.89572
2201.00 1168.47 1.541825 57.447 0.833398 17.8757 0.556734 0.0845679 3.32256 0.00280311 7.14684 0.00139752 10.8869 1.84207
2101.00 1166.80 1.543395 57.555 0.803141 17.8575 0.557135 0.0835969 3.29404 0.00273388 7.11635 0.00136071 10.9402 1.78891
2001.00 1165.11 1.544729 57.6638 0.772285 17.84 0.557045 0.0826106 3.26542 0.0026656 7.08548 0.00132447 10.9933 1.73612
1901.00 1163.41 1.545817 57.7731 0.740929 17.823 0.556474 0.0816071 3.23676 0.00259827 7.05432 0.0012888 11.0463 1.68356
1801.00 1161.68 1.546642 57.8828 0.709178 17.8068 0.555432 0.0805845 3.20813 0.00253188 7.02293 0.00125368 11.0994 1.63107
1701.00 1159.93 1.547180 57.9923 0.677143 17.7912 0.553934 0.0795405 3.17961 0.0024664 6.99138 0.00121911 11.1528 1.57848
1601.00 1158.17 1.547398 58.1013 0.64494 17.7763 0.551998 0.0784724 3.15126 0.00240183 6.95975 0.00118508 11.2068 1.52562
1501.00 1156.39 1.547249 58.2093 0.612688 17.7622 0.549644 0.0773773 3.12318 0.00233813 6.92813 0.00115157 11.2617 1.47227
1401.00 1154.59 1.546674 58.316 0.580511 17.7489 0.546898 0.0762516 3.09546 0.00227527 6.89662 0.00111858 11.3178 1.4182
1301.00 1152.77 1.545593 58.4206 0.548535 17.7365 0.543789 0.0750911 3.0682 0.00221323 6.86532 0.00108608 11.3755 1.36315
1201.00 1150.94 1.543903 58.5228 0.516889 17.7249 0.540351 0.0738909 3.04152 0.00215196 6.83437 0.00105405 11.4352 1.30683
1101.00 1149.09 1.541470 58.6217 0.485705 17.7144 0.536624 0.0726452 3.01554 0.00209142 6.80391 0.00102248 11.4975 1.24888
1001.00 1147.24 1.538123 58.7166 0.455116 17.7049 0.532658 0.0713471 2.99042 0.00203156 6.7741 0.000991344 11.5629 1.18892
901.00 1145.37 1.533642 58.8066 0.425256 17.6965 0.528508 0.0699882 2.96634 0.00197231 6.74512 0.000960606 11.6323 1.12648
801.00 1143.50 1.527742 58.8906 0.396261 17.6893 0.524243 0.068559 2.9435 0.0019136 6.71722 0.000930236 11.7065 1.061
701.00 1141.63 1.520064 58.9676 0.368269 17.6833 0.519943 0.0670481 2.92216 0.00185536 6.69064 0.000900199 11.7864 0.991855
601.00 1139.77 1.510153 59.036 0.341416 17.6787 0.515706 0.0654424 2.90261 0.00179749 6.6657 0.000870455 11.8735 0.918285
501.00 1137.91 1.497448 59.0942 0.315841 17.6755 0.511652 0.0637269 2.8852 0.0017399 6.64276 0.000840963 11.9691 0.839411
401.00 1136.08 1.481275 59.1404 0.291682 17.6737 0.50792 0.0618856 2.87035 0.0016825 6.62224 0.000811684 12.0751 0.754226
301.00 1134.28 1.460871 59.1725 0.269075 17.6733 0.50468 0.0599019 2.85854 0.00162521 6.60461 0.000782583 12.1933 0.661609
201.00 1132.87 1.300907 59.2025 0.254196 17.6424 0.506271 0.0581029 2.8539 0.00158165 6.5963 0.000760459 12.3155 0.568429
101.00 1132.18 1.011015 59.2604 0.252809 17.5436 0.516532 0.057002 2.85746 0.001568 6.601 0.000753272 12.4172 0.491733
1.00 1131.49 1.009626 59.3345 0.25103 17.4382 0.525781 0.0560956 2.85864 0.0015584 6.60348 0.000748036 12.5056 0.42439