Title: Depleted MORB Mantle of Workmann & Hart 2005

System Thermodynamic Data:
Pressure Temperature mass F phi S H V Cp dVdP*10^6 dVdT*10^6 fO2(absolute) fO2(absolute) rhol rhos viscosity aH2O chisqr
44001.00 1268.41 100.138999 0.0000000000000000 0.000000 242.679867 -1168391.544463 29.982946 123.842129 -19.861529 1383.820902 -6.858 -6.858 0.000000 3.339865 0.000 0 0.000
43901.00 1268.23 100.138999 0.0000000000000000 0.000000 242.679867 -1168691.383497 29.984861 123.848092 -19.868458 1383.756622 -6.863 -6.863 0.000000 3.339652 0.000 0 0.000
43801.00 1268.04 100.138999 0.0000000000000000 0.000000 242.679867 -1168991.241694 29.986778 123.854056 -19.875391 1383.692467 -6.867 -6.867 0.000000 3.339438 0.000 0 0.000
43701.00 1267.86 100.138999 0.0000000000000000 0.000000 242.679867 -1169291.119071 29.988697 123.860019 -19.882328 1383.628438 -6.872 -6.872 0.000000 3.339225 0.000 0 0.000
43601.00 1267.67 100.138999 0.0000000000000000 0.000000 242.679867 -1169591.015649 29.990618 123.865982 -19.889269 1383.564534 -6.877 -6.877 0.000000 3.339011 0.000 0 0.000
43501.00 1267.49 100.138999 0.0000000000000000 0.000000 242.679867 -1169890.931446 29.992541 123.871946 -19.896214 1383.500759 -6.881 -6.881 0.000000 3.338797 0.000 0 0.000
43401.00 1267.31 100.138999 0.0000000000000000 0.000000 242.679867 -1170190.866483 29.994466 123.877909 -19.903163 1383.437111 -6.886 -6.886 0.000000 3.338582 0.000 0 0.000
43301.00 1267.12 100.138999 0.0000000000000000 0.000000 242.679867 -1170490.820779 29.996393 123.883871 -19.910117 1383.373593 -6.891 -6.891 0.000000 3.338368 0.000 0 0.000
43201.00 1266.94 100.138999 0.0000000000000000 0.000000 242.679867 -1170790.794354 29.998322 123.889834 -19.917075 1383.310206 -6.895 -6.895 0.000000 3.338153 0.000 0 0.000
43101.00 1266.75 100.138999 0.0000000000000000 0.000000 242.679867 -1171090.787227 30.000253 123.895797 -19.924037 1383.246950 -6.900 -6.900 0.000000 3.337938 0.000 0 0.000
43001.00 1266.57 100.138999 0.0000000000000000 0.000000 242.679867 -1171390.799419 30.002186 123.901760 -19.931003 1383.183826 -6.905 -6.905 0.000000 3.337723 0.000 0 0.000
42901.00 1266.38 100.138999 0.0000000000000000 0.000000 242.679867 -1171690.830950 30.004121 123.907722 -19.937974 1383.120836 -6.909 -6.909 0.000000 3.337508 0.000 0 0.000
42801.00 1266.20 100.138999 0.0000000000000000 0.000000 242.679867 -1171990.881840 30.006058 123.913685 -19.944949 1383.057981 -6.914 -6.914 0.000000 3.337293 0.000 0 0.000
42701.00 1266.02 100.138999 0.0000000000000000 0.000000 242.679867 -1172290.952109 30.007997 123.919648 -19.951929 1382.995262 -6.919 -6.919 0.000000 3.337077 0.000 0 0.000
42601.00 1265.83 100.138999 0.0000000000000000 0.000000 242.679867 -1172591.041779 30.009938 123.925611 -19.958913 1382.932680 -6.924 -6.924 0.000000 3.336861 0.000 0 0.000
42501.00 1265.65 100.138999 0.0000000000000000 0.000000 242.679867 -1172891.150869 30.011881 123.931573 -19.965902 1382.870236 -6.928 -6.928 0.000000 3.336645 0.000 0 0.000
42401.00 1265.46 100.138999 0.0000000000000000 0.000000 242.679867 -1173191.279400 30.013826 123.937536 -19.972895 1382.807931 -6.933 -6.933 0.000000 3.336429 0.000 0 0.000
42301.00 1265.28 100.138999 0.0000000000000000 0.000000 242.679867 -1173491.427394 30.015773 123.943499 -19.979893 1382.745766 -6.938 -6.938 0.000000 3.336213 0.000 0 0.000
42201.00 1265.09 100.138999 0.0000000000000000 0.000000 242.679867 -1173791.594870 30.017723 123.949462 -19.986896 1382.683743 -6.943 -6.943 0.000000 3.335996 0.000 0 0.000
42101.00 1264.91 100.138999 0.0000000000000000 0.000000 242.679867 -1174091.781851 30.019674 123.955425 -19.993903 1382.621863 -6.948 -6.948 0.000000 3.335779 0.000 0 0.000
42001.00 1264.73 100.138999 0.0000000000000000 0.000000 242.679867 -1174391.988358 30.021628 123.961388 -20.000915 1382.560127 -6.952 -6.952 0.000000 3.335562 0.000 0 0.000
41901.00 1264.54 100.138999 0.0000000000000000 0.000000 242.679867 -1174692.214412 30.023583 123.967352 -20.007931 1382.498536 -6.957 -6.957 0.000000 3.335345 0.000 0 0.000
41801.00 1264.36 100.138999 0.0000000000000000 0.000000 242.679867 -1174992.460034 30.025541 123.973315 -20.014953 1382.437092 -6.962 -6.962 0.000000 3.335127 0.000 0 0.000
41701.00 1264.17 100.138999 0.0000000000000000 0.000000 242.679867 -1175292.725247 30.027502 123.979279 -20.021979 1382.375795 -6.967 -6.967 0.000000 3.334909 0.000 0 0.000
41601.00 1263.99 100.138999 0.0000000000000000 0.000000 242.679867 -1175593.010072 30.029464 123.985243 -20.029010 1382.314647 -6.972 -6.972 0.000000 3.334692 0.000 0 0.000
41501.00 1263.80 100.138999 0.0000000000000000 0.000000 242.679867 -1175893.314531 30.031428 123.991207 -20.036047 1382.253650 -6.977 -6.977 0.000000 3.334473 0.000 0 0.000
41401.00 1263.62 100.138999 0.0000000000000000 0.000000 242.679867 -1176193.638646 30.033395 123.997171 -20.043088 1382.192804 -6.982 -6.982 0.000000 3.334255 0.000 0 0.000
41301.00 1263.43 100.138999 0.0000000000000000 0.000000 242.679867 -1176493.982439 30.035364 124.003136 -20.050134 1382.132111 -6.987 -6.987 0.000000 3.334036 0.000 0 0.000
41201.00 1263.25 100.138999 0.0000000000000000 0.000000 242.679867 -1176794.345934 30.037335 124.009101 -20.057186 1382.071572 -6.992 -6.992 0.000000 3.333818 0.000 0 0.000
41101.00 1263.06 100.138999 0.0000000000000000 0.000000 242.679867 -1177094.729152 30.039309 124.015066 -20.064242 1382.011189 -6.997 -6.997 0.000000 3.333599 0.000 0 0.000
41001.00 1262.88 100.138999 0.0000000000000000 0.000000 242.679867 -1177395.132116 30.041284 124.021032 -20.071304 1381.950963 -7.001 -7.001 0.000000 3.333379 0.000 0 0.000
40901.00 1262.69 100.138999 0.0000000000000000 0.000000 242.679867 -1177695.554850 30.043263 124.026997 -20.078371 1381.890896 -7.006 -7.006 0.000000 3.333160 0.000 0 0.000
40801.00 1262.51 100.138999 0.0000000000000000 0.000000 242.679867 -1177995.997375 30.045243 124.032964 -20.085443 1381.830988 -7.011 -7.011 0.000000 3.332940 0.000 0 0.000
40701.00 1262.33 100.138999 0.0000000000000000 0.000000 242.679867 -1178296.459716 30.047226 124.038930 -20.092521 1381.771241 -7.016 -7.016 0.000000 3.332720 0.000 0 0.000
40601.00 1262.14 100.138999 0.0000000000000000 0.000000 242.679867 -1178596.941895 30.049211 124.044897 -20.099604 1381.711657 -7.021 -7.021 0.000000 3.332500 0.000 0 0.000
40501.00 1261.96 100.138999 0.0000000000000000 0.000000 242.679867 -1178897.443937 30.051198 124.050865 -20.106692 1381.652238 -7.026 -7.026 0.000000 3.332280 0.000 0 0.000
40401.00 1261.77 100.138999 0.0000000000000000 0.000000 242.679867 -1179197.965864 30.053188 124.056833 -20.113786 1381.592984 -7.032 -7.032 0.000000 3.332059 0.000 0 0.000
40301.00 1261.59 100.138999 0.0000000000000000 0.000000 242.679867 -1179498.507701 30.055180 124.062801 -20.120885 1381.533897 -7.037 -7.037 0.000000 3.331838 0.000 0 0.000
40201.00 1261.40 100.138999 0.0000000000000000 0.000000 242.679867 -1179799.069472 30.057175 124.068770 -20.127990 1381.474979 -7.042 -7.042 0.000000 3.331617 0.000 0 0.000
40101.00 1261.22 100.138999 0.0000000000000000 0.000000 242.679867 -1180099.651201 30.059172 124.074739 -20.135101 1381.416231 -7.047 -7.047 0.000000 3.331396 0.000 0 0.000
40001.00 1261.03 100.138999 0.0000000000000000 0.000000 242.679867 -1180400.252912 30.061171 124.080709 -20.142218 1381.357656 -7.052 -7.052 0.000000 3.331174 0.000 0 0.000
39901.00 1260.85 100.138999 0.0000000000000000 0.000000 242.679867 -1180700.874630 30.063173 124.086680 -20.149340 1381.299253 -7.057 -7.057 0.000000 3.330952 0.000 0 0.000
39801.00 1260.66 100.138999 0.0000000000000000 0.000000 242.679867 -1181001.516380 30.065177 124.092651 -20.156468 1381.241026 -7.062 -7.062 0.000000 3.330730 0.000 0 0.000
39701.00 1260.48 100.138999 0.0000000000000000 0.000000 242.679867 -1181302.178186 30.067184 124.098623 -20.163602 1381.182976 -7.067 -7.067 0.000000 3.330508 0.000 0 0.000
39601.00 1260.29 100.138999 0.0000000000000000 0.000000 242.679867 -1181602.860074 30.069194 124.104595 -20.170742 1381.125104 -7.072 -7.072 0.000000 3.330285 0.000 0 0.000
39501.00 1260.11 100.138999 0.0000000000000000 0.000000 242.679867 -1181903.562068 30.071206 124.110568 -20.177887 1381.067413 -7.078 -7.078 0.000000 3.330063 0.000 0 0.000
39401.00 1259.92 100.138999 0.0000000000000000 0.000000 242.679867 -1182204.284195 30.073220 124.116542 -20.185039 1381.009903 -7.083 -7.083 0.000000 3.329840 0.000 0 0.000
39301.00 1259.74 100.138999 0.0000000000000000 0.000000 242.679867 -1182505.026480 30.075237 124.122516 -20.192197 1380.952577 -7.088 -7.088 0.000000 3.329616 0.000 0 0.000
39201.00 1259.55 100.138999 0.0000000000000000 0.000000 242.679867 -1182805.788949 30.077257 124.128492 -20.199362 1380.895437 -7.093 -7.093 0.000000 3.329393 0.000 0 0.000
39101.00 1259.36 100.138999 0.0000000000000000 0.000000 242.679867 -1183106.571628 30.079279 124.134468 -20.206532 1380.838484 -7.098 -7.098 0.000000 3.329169 0.000 0 0.000
39001.00 1259.18 100.138999 0.0000000000000000 0.000000 242.679867 -1183407.374543 30.081304 124.140445 -20.213709 1380.781720 -7.104 -7.104 0.000000 3.328945 0.000 0 0.000
38901.00 1258.99 100.138999 0.0000000000000000 0.000000 242.679867 -1183708.197721 30.083332 124.146422 -20.220892 1380.725147 -7.109 -7.109 0.000000 3.328720 0.000 0 0.000
38801.00 1258.81 100.138999 0.0000000000000000 0.000000 242.679867 -1184009.041188 30.085362 124.152401 -20.228082 1380.668767 -7.114 -7.114 0.000000 3.328496 0.000 0 0.000
38701.00 1258.62 100.138999 0.0000000000000000 0.000000 242.679867 -1184309.904972 30.087395 124.158380 -20.235278 1380.612582 -7.120 -7.120 0.000000 3.328271 0.000 0 0.000
38601.00 1258.44 100.138999 0.0000000000000000 0.000000 242.679867 -1184610.789099 30.089431 124.164361 -20.242480 1380.556594 -7.125 -7.125 0.000000 3.328046 0.000 0 0.000
38501.00 1258.25 100.138999 0.0000000000000000 0.000000 242.679867 -1184911.693597 30.091469 124.170342 -20.249690 1380.500804 -7.130 -7.130 0.000000 3.327820 0.000 0 0.000
38401.00 1258.07 100.138999 0.0000000000000000 0.000000 242.679867 -1185212.618493 30.093510 124.176324 -20.256906 1380.445215 -7.136 -7.136 0.000000 3.327594 0.000 0 0.000
38301.00 1257.88 100.138999 0.0000000000000000 0.000000 242.679867 -1185513.563816 30.095554 124.182308 -20.264128 1380.389829 -7.141 -7.141 0.000000 3.327368 0.000 0 0.000
38201.00 1257.70 100.138999 0.0000000000000000 0.000000 242.679867 -1185814.529592 30.097601 124.188292 -20.271358 1380.334648 -7.146 -7.146 0.000000 3.327142 0.000 0 0.000
38101.00 1257.51 100.138999 0.0000000000000000 0.000000 242.679867 -1186115.515851 30.099651 124.194277 -20.278594 1380.279673 -7.152 -7.152 0.000000 3.326916 0.000 0 0.000
38001.00 1257.32 100.138999 0.0000000000000000 0.000000 242.679867 -1186416.522621 30.101703 124.200264 -20.285838 1380.224908 -7.157 -7.157 0.000000 3.326689 0.000 0 0.000
37901.00 1257.14 100.138999 0.0000000000000000 0.000000 242.679867 -1186717.549930 30.103759 124.206252 -20.293089 1380.170355 -7.162 -7.162 0.000000 3.326462 0.000 0 0.000
37801.00 1256.95 100.138999 0.0000000000000000 0.000000 242.679867 -1187018.597808 30.105817 124.212241 -20.300346 1380.116014 -7.168 -7.168 0.000000 3.326234 0.000 0 0.000
37701.00 1256.77 100.138999 0.0000000000000000 0.000000 242.679867 -1187319.666284 30.107878 124.218231 -20.307611 1380.061890 -7.173 -7.173 0.000000 3.326006 0.000 0 0.000
37601.00 1256.58 100.138999 0.0000000000000000 0.000000 242.679867 -1187620.755387 30.109943 124.224223 -20.314884 1380.007984 -7.179 -7.179 0.000000 3.325778 0.000 0 0.000
37501.00 1256.39 100.138999 0.0000000000000000 0.000000 242.679867 -1187921.865147 30.112010 124.230215 -20.322163 1379.954298 -7.184 -7.184 0.000000 3.325550 0.000 0 0.000
37401.00 1256.21 100.138999 0.0000000000000000 0.000000 242.679867 -1188222.995593 30.114080 124.236209 -20.329450 1379.900834 -7.190 -7.190 0.000000 3.325322 0.000 0 0.000
37301.00 1256.02 100.138999 0.0000000000000000 0.000000 242.679867 -1188524.146757 30.116153 124.242205 -20.336745 1379.847596 -7.195 -7.195 0.000000 3.325093 0.000 0 0.000
37201.00 1255.84 100.138999 0.0000000000000000 0.000000 242.679867 -1188825.318669 30.118230 124.248202 -20.344047 1379.794586 -7.201 -7.201 0.000000 3.324863 0.000 0 0.000
37101.00 1255.65 100.138999 0.0000000000000000 0.000000 242.679867 -1189126.511359 30.120309 124.254200 -20.351357 1379.741805 -7.206 -7.206 0.000000 3.324634 0.000 0 0.000
37001.00 1255.46 100.138999 0.0000000000000000 0.000000 242.679867 -1189427.724859 30.122391 124.260200 -20.358675 1379.689257 -7.212 -7.212 0.000000 3.324404 0.000 0 0.000
36901.00 1255.28 100.138999 0.0000000000000000 0.000000 242.679867 -1189728.959200 30.124477 124.266201 -20.366000 1379.636945 -7.218 -7.218 0.000000 3.324174 0.000 0 0.000
36801.00 1255.09 100.138999 0.0000000000000000 0.000000 242.679867 -1190030.214413 30.126566 124.272204 -20.373334 1379.584870 -7.223 -7.223 0.000000 3.323943 0.000 0 0.000
36701.00 1254.90 100.138999 0.0000000000000000 0.000000 242.679867 -1190331.490531 30.128658 124.278209 -20.380675 1379.533035 -7.229 -7.229 0.000000 3.323713 0.000 0 0.000
36601.00 1254.72 100.138999 0.0000000000000000 0.000000 242.679867 -1190632.787585 30.130753 124.284215 -20.388025 1379.481444 -7.234 -7.234 0.000000 3.323481 0.000 0 0.000
36501.00 1254.53 100.138999 0.0000000000000000 0.000000 242.679867 -1190934.105609 30.132852 124.290223 -20.395383 1379.430098 -7.240 -7.240 0.000000 3.323250 0.000 0 0.000
36401.00 1254.34 100.138999 0.0000000000000000 0.000000 242.679867 -1191235.444634 30.134954 124.296233 -20.402749 1379.379001 -7.246 -7.246 0.000000 3.323018 0.000 0 0.000
36301.00 1254.16 100.138999 0.0000000000000000 0.000000 242.679867 -1191536.804695 30.137059 124.302244 -20.410124 1379.328156 -7.252 -7.252 0.000000 3.322786 0.000 0 0.000
36201.00 1253.97 100.138999 0.0000000000000000 0.000000 242.679867 -1191838.185825 30.139168 124.308258 -20.417507 1379.277564 -7.257 -7.257 0.000000 3.322554 0.000 0 0.000
36101.00 1253.78 100.138999 0.0000000000000000 0.000000 242.679867 -1192139.588057 30.141279 124.314273 -20.424899 1379.227231 -7.263 -7.263 0.000000 3.322321 0.000 0 0.000
36001.00 1253.60 100.138999 0.0000000000000000 0.000000 242.679867 -1192441.011425 30.143395 124.320290 -20.432299 1379.177157 -7.269 -7.269 0.000000 3.322088 0.000 0 0.000
35901.00 1253.41 100.138999 0.0000000000000000 0.000000 242.679867 -1192742.455965 30.145514 124.326309 -20.439709 1379.127347 -7.274 -7.274 0.000000 3.321854 0.000 0 0.000
35801.00 1253.22 100.138999 0.0000000000000000 0.000000 242.679867 -1193043.921710 30.147636 124.332331 -20.447127 1379.077803 -7.280 -7.280 0.000000 3.321620 0.000 0 0.000
35701.00 1253.04 100.138999 0.0000000000000000 0.000000 242.679867 -1193345.408696 30.149762 124.338354 -20.454554 1379.028529 -7.286 -7.286 0.000000 3.321386 0.000 0 0.000
35601.00 1252.85 100.138999 0.0000000000000000 0.000000 242.679867 -1193646.916959 30.151891 124.344379 -20.461990 1378.979527 -7.292 -7.292 0.000000 3.321152 0.000 0 0.000
35501.00 1252.66 100.138999 0.0000000000000000 0.000000 242.679867 -1193948.446534 30.154024 124.350407 -20.469436 1378.930802 -7.298 -7.298 0.000000 3.320917 0.000 0 0.000
35401.00 1252.48 100.138999 0.0000000000000000 0.000000 242.679867 -1194249.997458 30.156161 124.356437 -20.476891 1378.882356 -7.304 -7.304 0.000000 3.320681 0.000 0 0.000
35301.00 1252.29 100.138999 0.0000000000000000 0.000000 242.679867 -1194551.569766 30.158301 124.362469 -20.484355 1378.834193 -7.309 -7.309 0.000000 3.320446 0.000 0 0.000
35201.00 1252.10 100.138999 0.0000000000000000 0.000000 242.679867 -1194853.163497 30.160445 124.368504 -20.491829 1378.786316 -7.315 -7.315 0.000000 3.320210 0.000 0 0.000
35101.00 1251.91 100.138999 0.0000000000000000 0.000000 242.679867 -1195154.778687 30.162593 124.374541 -20.499313 1378.738729 -7.321 -7.321 0.000000 3.319973 0.000 0 0.000
35001.00 1251.73 100.138999 0.0000000000000000 0.000000 242.679867 -1195456.415374 30.164745 124.380580 -20.506806 1378.691435 -7.327 -7.327 0.000000 3.319736 0.000 0 0.000
34901.00 1251.54 100.138999 0.0000000000000000 0.000000 242.679867 -1195758.073597 30.166900 124.386623 -20.514309 1378.644438 -7.333 -7.333 0.000000 3.319499 0.000 0 0.000
34801.00 1251.35 100.138999 0.0000000000000000 0.000000 242.679867 -1196059.753393 30.169060 124.392667 -20.521823 1378.597742 -7.339 -7.339 0.000000 3.319262 0.000 0 0.000
34701.00 1251.16 100.138999 0.0000000000000000 0.000000 242.679867 -1196361.454803 30.171223 124.398715 -20.529346 1378.551351 -7.345 -7.345 0.000000 3.319024 0.000 0 0.000
34601.00 1250.98 100.138999 0.0000000000000000 0.000000 242.679867 -1196663.177864 30.173390 124.404765 -20.536880 1378.505267 -7.351 -7.351 0.000000 3.318785 0.000 0 0.000
34501.00 1250.79 100.138999 0.0000000000000000 0.000000 242.679867 -1196964.922618 30.175561 124.410818 -20.544424 1378.459497 -7.357 -7.357 0.000000 3.318546 0.000 0 0.000
34401.00 1250.60 100.138999 0.0000000000000000 0.000000 242.679867 -1197266.689104 30.177737 124.416874 -20.551979 1378.414042 -7.363 -7.363 0.000000 3.318307 0.000 0 0.000
34301.00 1250.41 100.138999 0.0000000000000000 0.000000 242.679867 -1197568.477363 30.179916 124.422932 -20.559544 1378.368908 -7.369 -7.369 0.000000 3.318068 0.000 0 0.000
34201.00 1250.22 100.138999 0.0000000000000000 0.000000 242.679867 -1197870.287437 30.182099 124.428994 -20.567120 1378.324099 -7.376 -7.376 0.000000 3.317827 0.000 0 0.000
34101.00 1250.04 100.138999 0.0000000000000000 0.000000 242.679867 -1198172.119366 30.184287 124.435059 -20.574707 1378.279618 -7.382 -7.382 0.000000 3.317587 0.000 0 0.000
34001.00 1249.85 100.138999 0.0000000000000000 0.000000 242.679867 -1198473.973194 30.186479 124.441127 -20.582306 1378.235471 -7.388 -7.388 0.000000 3.317346 0.000 0 0.000
33901.00 1249.66 100.138999 0.0000000000000000 0.000000 242.679867 -1198775.848962 30.188675 124.447198 -20.589915 1378.191661 -7.394 -7.394 0.000000 3.317105 0.000 0 0.000
33801.00 1249.47 100.138999 0.0000000000000000 0.000000 242.679867 -1199077.746714 30.190876 124.453273 -20.597536 1378.148194 -7.400 -7.400 0.000000 3.316863 0.000 0 0.000
33701.00 1249.28 100.138999 0.0000000000000000 0.000000 242.679867 -1199379.666494 30.193081 124.459351 -20.605168 1378.105074 -7.406 -7.406 0.000000 3.316621 0.000 0 0.000
33601.00 1249.09 100.138999 0.0000000000000000 0.000000 242.679867 -1199681.608345 30.195290 124.465433 -20.612812 1378.062305 -7.413 -7.413 0.000000 3.316378 0.000 0 0.000
33501.00 1248.90 100.138999 0.0000000000000000 0.000000 242.679867 -1199983.572312 30.197504 124.471518 -20.620468 1378.019892 -7.419 -7.419 0.000000 3.316135 0.000 0 0.000
33401.00 1248.72 100.138999 0.0000000000000000 0.000000 242.679867 -1200285.558441 30.199722 124.477606 -20.628136 1377.977840 -7.425 -7.425 0.000000 3.315891 0.000 0 0.000
33301.00 1248.53 100.138999 0.0000000000000000 0.000000 242.679867 -1200587.566777 30.201945 124.483699 -20.635816 1377.936155 -7.431 -7.431 0.000000 3.315647 0.000 0 0.000
33201.00 1248.34 100.138999 0.0000000000000000 0.000000 242.679867 -1200889.597366 30.204173 124.489795 -20.643508 1377.894842 -7.438 -7.438 0.000000 3.315403 0.000 0 0.000
33101.00 1248.15 100.138999 0.0000000000000000 0.000000 242.679867 -1201191.650256 30.206406 124.495895 -20.651213 1377.853904 -7.444 -7.444 0.000000 3.315158 0.000 0 0.000
33001.00 1247.96 100.138999 0.0000000000000000 0.000000 242.679867 -1201493.725494 30.208643 124.501999 -20.658930 1377.813349 -7.451 -7.451 0.000000 3.314912 0.000 0 0.000
32901.00 1247.77 100.138999 0.0000000000000000 0.000000 242.679867 -1201795.823128 30.210885 124.508107 -20.666661 1377.773181 -7.457 -7.457 0.000000 3.314666 0.000 0 0.000
32801.00 1247.58 100.138999 0.0000000000000000 0.000000 242.679867 -1202097.943206 30.213132 124.514220 -20.674404 1377.733406 -7.463 -7.463 0.000000 3.314420 0.000 0 0.000
