Title: Depleted MORB Mantle of Workmann & Hart 2005

Liquid Composition:
Pressure Temperature mass SiO2 TiO2 Al2O3 Fe2O3 Cr2O3 FeO MnO MgO NiO CaO Na2O 
44001.00 1230.54 0.000000 ---
43901.00 1230.36 0.000000 ---
43801.00 1230.18 0.000000 ---
43701.00 1230.00 0.000000 ---
43601.00 1229.83 0.000000 ---
43501.00 1229.65 0.000000 ---
43401.00 1229.47 0.000000 ---
43301.00 1229.30 0.000000 ---
43201.00 1229.12 0.000000 ---
43101.00 1228.94 0.000000 ---
43001.00 1228.76 0.000000 ---
42901.00 1228.59 0.000000 ---
42801.00 1228.41 0.000000 ---
42701.00 1228.23 0.000000 ---
42601.00 1228.05 0.000000 ---
42501.00 1227.88 0.000000 ---
42401.00 1227.70 0.000000 ---
42301.00 1227.52 0.000000 ---
42201.00 1227.34 0.000000 ---
42101.00 1227.17 0.000000 ---
42001.00 1226.99 0.000000 ---
41901.00 1226.81 0.000000 ---
41801.00 1226.63 0.000000 ---
41701.00 1226.46 0.000000 ---
41601.00 1226.28 0.000000 ---
41501.00 1226.10 0.000000 ---
41401.00 1225.92 0.000000 ---
41301.00 1225.75 0.000000 ---
41201.00 1225.57 0.000000 ---
41101.00 1225.39 0.000000 ---
41001.00 1225.21 0.000000 ---
40901.00 1225.04 0.000000 ---
40801.00 1224.86 0.000000 ---
40701.00 1224.68 0.000000 ---
40601.00 1224.50 0.000000 ---
40501.00 1224.33 0.000000 ---
40401.00 1224.15 0.000000 ---
40301.00 1223.97 0.000000 ---
40201.00 1223.79 0.000000 ---
40101.00 1223.61 0.000000 ---
40001.00 1223.44 0.000000 ---
39901.00 1223.26 0.000000 ---
39801.00 1223.08 0.000000 ---
39701.00 1222.90 0.000000 ---
39601.00 1222.72 0.000000 ---
39501.00 1222.55 0.000000 ---
39401.00 1222.37 0.000000 ---
39301.00 1222.19 0.000000 ---
39201.00 1222.01 0.000000 ---
39101.00 1221.83 0.000000 ---
39001.00 1221.65 0.000000 ---
38901.00 1221.48 0.000000 ---
38801.00 1221.30 0.000000 ---
38701.00 1221.12 0.000000 ---
38601.00 1220.94 0.000000 ---
38501.00 1220.76 0.000000 ---
38401.00 1220.58 0.000000 ---
38301.00 1220.41 0.000000 ---
38201.00 1220.23 0.000000 ---
38101.00 1220.05 0.000000 ---
38001.00 1219.87 0.000000 ---
37901.00 1219.69 0.000000 ---
37801.00 1219.51 0.000000 ---
37701.00 1219.33 0.000000 ---
37601.00 1219.16 0.000000 ---
37501.00 1218.98 0.000000 ---
37401.00 1218.80 0.000000 ---
37301.00 1218.62 0.000000 ---
37201.00 1218.44 0.000000 ---
37101.00 1218.26 0.000000 ---
37001.00 1218.08 0.000000 ---
36901.00 1217.90 0.000000 ---
36801.00 1217.72 0.000000 ---
36701.00 1217.54 0.000000 ---
36601.00 1217.37 0.000000 ---
36501.00 1217.19 0.000000 ---
36401.00 1217.01 0.000000 ---
36301.00 1216.83 0.000000 ---
36201.00 1216.65 0.000000 ---
36101.00 1216.47 0.000000 ---
36001.00 1216.29 0.000000 ---
35901.00 1216.11 0.000000 ---
35801.00 1215.93 0.000000 ---
35701.00 1215.75 0.000000 ---
35601.00 1215.57 0.000000 ---
35501.00 1215.39 0.000000 ---
35401.00 1215.21 0.000000 ---
35301.00 1215.03 0.000000 ---
35201.00 1214.85 0.000000 ---
35101.00 1214.67 0.000000 ---
35001.00 1214.49 0.000000 ---
34901.00 1214.31 0.000000 ---
34801.00 1214.13 0.000000 ---
34701.00 1213.95 0.000000 ---
34601.00 1213.77 0.000000 ---
34501.00 1213.59 0.000000 ---
34401.00 1213.41 0.000000 ---
34301.00 1213.23 0.000000 ---
34201.00 1213.05 0.000000 ---
34101.00 1212.87 0.000000 ---
34001.00 1212.69 0.000000 ---
33901.00 1212.51 0.000000 ---
33801.00 1212.32 0.000000 ---
33701.00 1212.14 0.000000 ---
33601.00 1211.96 0.000000 ---
33501.00 1211.78 0.000000 ---
33401.00 1211.60 0.000000 ---
33301.00 1211.42 0.000000 ---
33201.00 1211.24 0.000000 ---
33101.00 1211.06 0.000000 ---
33001.00 1210.87 0.000000 ---
32901.00 1210.69 0.000000 ---
32801.00 1210.51 0.000000 ---
32701.00 1210.33 0.000000 ---
32601.00 1210.15 0.000000 ---
32501.00 1209.97 0.000000 ---
32401.00 1209.78 0.000000 ---
32301.00 1209.60 0.000000 ---
32201.00 1209.42 0.000000 ---
32101.00 1209.24 0.000000 ---
32001.00 1209.05 0.000000 ---
31901.00 1208.87 0.000000 ---
31801.00 1208.69 0.000000 ---
31701.00 1208.51 0.000000 ---
31601.00 1208.32 0.000000 ---
31501.00 1208.14 0.000000 ---
31401.00 1207.96 0.000000 ---
31301.00 1207.77 0.000000 ---
31201.00 1207.59 0.000000 ---
31101.00 1207.41 0.000000 ---
31001.00 1207.22 0.000000 ---
30901.00 1207.04 0.000000 ---
30801.00 1206.86 0.000000 ---
30701.00 1206.67 0.000000 ---
30601.00 1206.49 0.000000 ---
30501.00 1206.30 0.000000 ---
30401.00 1206.12 0.000000 ---
30301.00 1205.93 0.000000 ---
30201.00 1205.75 0.000000 ---
30101.00 1205.57 0.000000 ---
30001.00 1205.38 0.000000 ---
29901.00 1205.20 0.000000 ---
29801.00 1205.01 0.000000 ---
29701.00 1204.82 0.000000 ---
29601.00 1204.64 0.000000 ---
29501.00 1204.45 0.000000 ---
29401.00 1204.27 0.000000 ---
29301.00 1204.08 0.000000 ---
29201.00 1203.90 0.000000 ---
29101.00 1203.71 0.000000 ---
29001.00 1203.52 0.000000 ---
28901.00 1203.34 0.000000 ---
28801.00 1203.15 0.000000 ---
28701.00 1202.96 0.000000 ---
28601.00 1202.78 0.000000 ---
28501.00 1202.59 0.000000 ---
28401.00 1202.40 0.000000 ---
28301.00 1202.21 0.000000 ---
28201.00 1202.03 0.000000 ---
28101.00 1201.84 0.000000 ---
28001.00 1201.65 0.000000 ---
27901.00 1201.46 0.000000 ---
27801.00 1201.27 0.000000 ---
27701.00 1201.08 0.000000 ---
27601.00 1200.89 0.000000 ---
27501.00 1200.70 0.000000 ---
27401.00 1200.52 0.000000 ---
27301.00 1200.33 0.000000 ---
27201.00 1200.14 0.000000 ---
27101.00 1199.95 0.000000 ---
27001.00 1199.75 0.000000 ---
26901.00 1199.56 0.000000 ---
26801.00 1199.37 0.000000 ---
26701.00 1199.18 0.000000 ---
26601.00 1198.99 0.000000 ---
26501.00 1198.80 0.000000 ---
26401.00 1198.61 0.000000 ---
26301.00 1198.41 0.000000 ---
26201.00 1198.22 0.000000 ---
26101.00 1198.03 0.000000 ---
26001.00 1197.84 0.000000 ---
25901.00 1197.64 0.000000 ---
25801.00 1197.45 0.000000 ---
25701.00 1197.25 0.000000 ---
25601.00 1197.06 0.000000 ---
25501.00 1196.87 0.000000 ---
25401.00 1196.67 0.000000 ---
25301.00 1196.47 0.000000 ---
25201.00 1196.28 0.000000 ---
25101.00 1196.08 0.000000 ---
25001.00 1195.89 0.000000 ---
24901.00 1195.69 0.000000 ---
24801.00 1195.49 0.000000 ---
24701.00 1195.30 0.000000 ---
24601.00 1195.10 0.000000 ---
24501.00 1194.90 0.000000 ---
24401.00 1194.70 0.000000 ---
24301.00 1194.50 0.000000 ---
24201.00 1194.30 0.000000 ---
24101.00 1194.10 0.000000 ---
24001.00 1193.90 0.000000 ---
23901.00 1193.70 0.000000 ---
23801.00 1193.50 0.000000 ---
23701.00 1193.30 0.000000 ---
23601.00 1193.09 0.000000 ---
23501.00 1192.89 0.000000 ---
23401.00 1192.69 0.000000 ---
23301.00 1192.49 0.000000 ---
23201.00 1192.28 0.000000 ---
23101.00 1192.08 0.000000 ---
23001.00 1191.87 0.000000 ---
22901.00 1191.67 0.000000 ---
22801.00 1191.46 0.000000 ---
22701.00 1191.25 0.000000 ---
22601.00 1191.04 0.000000 ---
22501.00 1190.84 0.000000 ---
22401.00 1190.63 0.000000 ---
22301.00 1190.42 0.000000 ---
22201.00 1190.21 0.000000 ---
22101.00 1190.00 0.000000 ---
22001.00 1189.79 0.000000 ---
21901.00 1189.57 0.000000 ---
21801.00 1189.36 0.000000 ---
21701.00 1189.15 0.000000 ---
21601.00 1188.93 0.000000 ---
21501.00 1188.72 0.000000 ---
21401.00 1188.50 0.000000 ---
21301.00 1188.28 0.000000 ---
21201.00 1188.07 0.000000 ---
21101.00 1187.85 0.000000 ---
21001.00 1187.63 0.000000 ---
20901.00 1187.41 0.000000 ---
20801.00 1187.19 0.000000 ---
20701.00 1186.97 0.000000 ---
20601.00 1186.74 0.000000 ---
20501.00 1186.52 0.000000 ---
20401.00 1186.29 0.000000 ---
20301.00 1186.07 0.000000 ---
20201.00 1185.84 0.000000 ---
20101.00 1185.61 0.000000 ---
20001.00 1185.38 0.000000 ---
19901.00 1185.15 0.000000 ---
19801.00 1184.92 0.000000 ---
19701.00 1184.69 0.000000 ---
19601.00 1184.45 0.000000 ---
19501.00 1184.22 0.000000 ---
19401.00 1183.98 0.000000 ---
19301.00 1183.74 0.000000 ---
19201.00 1183.50 0.000000 ---
19101.00 1183.26 0.000000 ---
19001.00 1183.01 0.000000 ---
18901.00 1182.77 0.000000 ---
18801.00 1182.52 0.000000 ---
18701.00 1182.27 0.000000 ---
18601.00 1182.02 0.000000 ---
18501.00 1181.77 0.000000 ---
18401.00 1181.51 0.000000 ---
18301.00 1181.26 0.000000 ---
18201.00 1181.00 0.000000 ---
18101.00 1180.74 0.000000 ---
18001.00 1180.47 0.000000 ---
17901.00 1180.21 0.000000 ---
17801.00 1179.94 0.000000 ---
17701.00 1179.66 0.000000 ---
17601.00 1179.39 0.000000 ---
17501.00 1179.11 0.000000 ---
17401.00 1178.83 0.000000 ---
17301.00 1178.55 0.000000 ---
17201.00 1178.26 0.000000 ---
17101.00 1177.97 0.000000 ---
17001.00 1177.78 0.000000 ---
16901.00 1177.62 0.000000 ---
16801.00 1177.45 0.000000 ---
16701.00 1177.29 0.000000 ---
16601.00 1177.13 0.000000 ---
16501.00 1176.96 0.000000 ---
16401.00 1176.80 0.000000 ---
16301.00 1176.63 0.000000 ---
16201.00 1176.47 0.000000 ---
16101.00 1176.30 0.000000 ---
16001.00 1176.14 0.000000 ---
15901.00 1175.97 0.000000 ---
15801.00 1175.81 0.000000 ---
15701.00 1175.65 0.000000 ---
15601.00 1175.48 0.000000 ---
15501.00 1175.32 0.000000 ---
15401.00 1175.15 0.000000 ---
15301.00 1174.99 0.000000 ---
15201.00 1174.82 0.000000 ---
15101.00 1174.66 0.000000 ---
15001.00 1174.49 0.000000 ---
14901.00 1174.33 0.000000 ---
14801.00 1174.17 0.000000 ---
14701.00 1174.00 0.000000 ---
14601.00 1173.84 0.000000 ---
14501.00 1173.67 0.000000 ---
14401.00 1173.51 0.000000 ---
14301.00 1173.34 0.000000 ---
14201.00 1173.18 0.000000 ---
14101.00 1173.01 0.000000 ---
14001.00 1172.85 0.000000 ---
13901.00 1172.69 0.000000 ---
13801.00 1172.52 0.000000 ---
13701.00 1172.36 0.000000 ---
13601.00 1172.19 0.000000 ---
13501.00 1172.03 0.000000 ---
13401.00 1171.86 0.000000 ---
13301.00 1171.70 0.000000 ---
13201.00 1171.54 0.000000 ---
13101.00 1171.37 0.000000 ---
13001.00 1171.21 0.000000 ---
12901.00 1171.04 0.000000 ---
12801.00 1170.88 0.000000 ---
12701.00 1170.71 0.000000 ---
12601.00 1170.55 0.000000 ---
12501.00 1170.39 0.000000 ---
12401.00 1170.22 0.000000 ---
12301.00 1170.06 0.000000 ---
12201.00 1169.89 0.000000 ---
12101.00 1169.73 0.000000 ---
12001.00 1169.57 0.000000 ---
11901.00 1169.40 0.000000 ---
11801.00 1169.24 0.000000 ---
11701.00 1169.07 0.000000 ---
11601.00 1168.91 0.000000 ---
11501.00 1168.74 0.000000 ---
11401.00 1168.58 0.000000 ---
11301.00 1168.42 0.000000 ---
11201.00 1168.25 0.000000 ---
11101.00 1168.09 0.000000 ---
11001.00 1167.92 0.000000 ---
10901.00 1167.76 0.000000 ---
10801.00 1167.60 0.000000 ---
10701.00 1167.43 0.000000 ---
10601.00 1167.27 0.000000 ---
10501.00 1167.10 0.000000 ---
10401.00 1166.94 0.000000 ---
10301.00 1166.77 0.000000 ---
10201.00 1166.61 0.000000 ---
10101.00 1166.45 0.000000 ---
10001.00 1166.28 0.000000 ---
9901.00 1166.12 0.000000 ---
9801.00 1165.95 0.000000 ---
9701.00 1165.79 0.000000 ---
9601.00 1165.63 0.000000 ---
9501.00 1165.46 0.000000 ---
9401.00 1165.28 0.000000 ---
9301.00 1165.05 0.000000 ---
9201.00 1164.82 0.000000 ---
9101.00 1164.60 0.000000 ---
9001.00 1164.37 0.000000 ---
8901.00 1164.15 0.000000 ---
8801.00 1163.92 0.000000 ---
8701.00 1163.70 0.000000 ---
8601.00 1163.47 0.000000 ---
8501.00 1163.25 0.000000 ---
8401.00 1163.03 0.000000 ---
8301.00 1162.81 0.000000 ---
8201.00 1162.59 0.000000 ---
8101.00 1162.37 0.000000 ---
8001.00 1162.15 0.000000 ---
7901.00 1161.93 0.000000 ---
7801.00 1161.71 0.000000 ---
7701.00 1161.49 0.000000 ---
7601.00 1161.27 0.000000 ---
7501.00 1161.05 0.000000 ---
7401.00 1160.83 0.000000 ---
7301.00 1160.61 0.000000 ---
7201.00 1160.39 0.000000 ---
7101.00 1160.17 0.000000 ---
7001.00 1159.95 0.000000 ---
6901.00 1159.73 0.000000 ---
6801.00 1159.51 0.000000 ---
6701.00 1159.29 0.000000 ---
6601.00 1159.07 0.000000 ---
6501.00 1158.84 0.000000 ---
6401.00 1158.62 0.000000 ---
6301.00 1158.40 0.000000 ---
6201.00 1158.17 0.000000 ---
6101.00 1157.95 0.000000 ---
6001.00 1157.72 0.000000 ---
5901.00 1157.50 0.000000 ---
5801.00 1157.27 0.000000 ---
5701.00 1157.04 0.000000 ---
5601.00 1156.81 0.000000 ---
5501.00 1156.58 0.000000 ---
5401.00 1156.35 0.000000 ---
5301.00 1156.12 0.000000 ---
5201.00 1155.88 0.000000 ---
5101.00 1155.65 0.000000 ---
5001.00 1155.41 0.000000 ---
4901.00 1155.18 0.000000 ---
4801.00 1154.94 0.000000 ---
4701.00 1154.70 0.000000 ---
4601.00 1154.46 0.000000 ---
4501.00 1154.22 0.000000 ---
4401.00 1153.99 0.000000 ---
4301.00 1153.75 0.000000 ---
4201.00 1153.51 0.000000 ---
4101.00 1153.27 0.000000 ---
4001.00 1153.03 0.000000 ---
3901.00 1152.80 0.000000 ---
3801.00 1152.56 0.000000 ---
3701.00 1152.33 0.000000 ---
3601.00 1152.10 0.000000 ---
3501.00 1151.86 0.000000 ---
3401.00 1151.64 0.000000 ---
3301.00 1151.41 0.000000 ---
3201.00 1151.18 0.000000 ---
3101.00 1150.96 0.000000 ---
3001.00 1150.74 0.000000 ---
2901.00 1150.52 0.000000 ---
2801.00 1150.31 0.000000 ---
2701.00 1150.09 0.000000 ---
2601.00 1149.88 0.000000 ---
2501.00 1149.67 0.000000 ---
2401.00 1149.46 0.000000 ---
2301.00 1149.26 0.000000 ---
2201.00 1149.06 0.000000 ---
2101.00 1148.86 0.000000 ---
2001.00 1148.66 0.000000 ---
1901.00 1148.46 0.000000 ---
1801.00 1148.27 0.000000 ---
1701.00 1148.08 0.000000 ---
1601.00 1147.89 0.000000 ---
1501.00 1147.70 0.000000 ---
1401.00 1147.37 0.059414 57.8486 1.45768 17.4575 0.703043 0.0887045 3.16029 0.00285324 6.78577 0.00139737 10.6829 1.81124
1301.00 1145.59 0.753869 58.0284 1.3896 17.4408 0.696363 0.0878638 3.12047 0.0027739 6.74487 0.001356 10.7083 1.77919
1201.00 1143.77 1.471720 58.2069 1.32424 17.424 0.689191 0.0870596 3.08073 0.00269695 6.70354 0.00131589 10.7321 1.74826
1101.00 1141.93 1.728295 58.3857 1.25961 17.4075 0.681521 0.0862621 3.0411 0.00262176 6.66186 0.00127675 10.7546 1.71803
1001.00 1140.06 1.729520 58.5651 1.19479 17.3915 0.673347 0.085457 3.00163 0.00254803 6.61989 0.00123844 10.7763 1.68819
901.00 1138.16 1.730907 58.7448 1.12999 17.3761 0.664696 0.0846452 2.96235 0.00247578 6.57767 0.00120097 10.7974 1.65868
801.00 1136.25 1.732464 58.9245 1.06544 17.3612 0.65559 0.0838273 2.92332 0.00240502 6.53526 0.00116432 10.8179 1.6294
701.00 1134.30 1.734195 59.1037 1.00138 17.347 0.646055 0.0830038 2.88456 0.00233575 6.49269 0.00112851 10.8379 1.60025
601.00 1132.34 1.736098 59.2822 0.938021 17.3333 0.636118 0.0821751 2.84613 0.00226797 6.45 0.00109353 10.8575 1.57114
501.00 1130.34 1.738166 59.4595 0.87559 17.3202 0.625802 0.0813413 2.80807 0.00220167 6.40726 0.00105937 10.877 1.54195
401.00 1128.31 1.740382 59.6353 0.814305 17.3077 0.615136 0.0805022 2.77041 0.00213684 6.3645 0.00102603 10.8964 1.51257
301.00 1126.26 1.742724 59.809 0.754379 17.2959 0.604147 0.0796569 2.73321 0.00207347 6.3218 0.00099348 10.916 1.48286
201.00 1124.18 1.745156 59.9802 0.696019 17.2848 0.592864 0.0788044 2.69652 0.00201151 6.27919 0.000961718 10.9359 1.45268
101.00 1122.06 1.747628 60.1486 0.639425 17.2745 0.581318 0.0779428 2.66038 0.00195094 6.23676 0.000930719 10.9564 1.42185
1.00 1119.91 1.750074 60.3135 0.584787 17.2649 0.569543 0.0770694 2.62486 0.00189171 6.19459 0.00090046 10.9778 1.39017