Title: Depleted MORB Mantle of Workmann & Hart 2005

Phase Masses:
Pressure Temperature mass liquid_0 olivine_0 garnet_0 orthopyroxene_0 clinopyroxene_0 feldspar_0 spinel_0 
44001.00 1230.54 100.138999 0.000000 59.068507 13.762458 13.793904 12.511542 0.000000 1.002588 
43901.00 1230.36 100.138999 0.000000 59.067994 13.755086 13.801110 12.511615 0.000000 1.003194 
43801.00 1230.18 100.138999 0.000000 59.067479 13.747662 13.808355 12.511699 0.000000 1.003804 
43701.00 1230.00 100.138999 0.000000 59.066959 13.740187 13.815639 12.511795 0.000000 1.004419 
43601.00 1229.83 100.138999 0.000000 59.066436 13.732660 13.822962 12.511903 0.000000 1.005038 
43501.00 1229.65 100.138999 0.000000 59.065908 13.725080 13.830326 12.512023 0.000000 1.005661 
43401.00 1229.47 100.138999 0.000000 59.065377 13.717448 13.837730 12.512155 0.000000 1.006289 
43301.00 1229.30 100.138999 0.000000 59.064842 13.709762 13.845175 12.512300 0.000000 1.006921 
43201.00 1229.12 100.138999 0.000000 59.064303 13.702022 13.852660 12.512456 0.000000 1.007558 
43101.00 1228.94 100.138999 0.000000 59.063759 13.694228 13.860187 12.512626 0.000000 1.008199 
43001.00 1228.76 100.138999 0.000000 59.063211 13.686379 13.867756 12.512808 0.000000 1.008845 
42901.00 1228.59 100.138999 0.000000 59.062660 13.678474 13.875367 12.513002 0.000000 1.009495 
42801.00 1228.41 100.138999 0.000000 59.062103 13.670514 13.883021 12.513210 0.000000 1.010151 
42701.00 1228.23 100.138999 0.000000 59.061543 13.662497 13.890718 12.513431 0.000000 1.010811 
42601.00 1228.05 100.138999 0.000000 59.060978 13.654423 13.898457 12.513665 0.000000 1.011476 
42501.00 1227.88 100.138999 0.000000 59.060409 13.646291 13.906241 12.513913 0.000000 1.012146 
42401.00 1227.70 100.138999 0.000000 59.059835 13.638102 13.914068 12.514174 0.000000 1.012821 
42301.00 1227.52 100.138999 0.000000 59.059256 13.629854 13.921940 12.514448 0.000000 1.013501 
42201.00 1227.34 100.138999 0.000000 59.058673 13.621546 13.929856 12.514737 0.000000 1.014187 
42101.00 1227.17 100.138999 0.000000 59.058085 13.613179 13.937818 12.515039 0.000000 1.014877 
42001.00 1226.99 100.138999 0.000000 59.057493 13.604752 13.945826 12.515356 0.000000 1.015573 
41901.00 1226.81 100.138999 0.000000 59.056895 13.596264 13.953879 12.515686 0.000000 1.016275 
41801.00 1226.63 100.138999 0.000000 59.056293 13.587714 13.961979 12.516032 0.000000 1.016981 
41701.00 1226.46 100.138999 0.000000 59.055685 13.579103 13.970126 12.516391 0.000000 1.017694 
41601.00 1226.28 100.138999 0.000000 59.055073 13.570428 13.978320 12.516766 0.000000 1.018412 
41501.00 1226.10 100.138999 0.000000 59.054455 13.561691 13.986562 12.517156 0.000000 1.019135 
41401.00 1225.92 100.138999 0.000000 59.053832 13.552890 13.994852 12.517560 0.000000 1.019865 
41301.00 1225.75 100.138999 0.000000 59.053204 13.544024 14.003191 12.517980 0.000000 1.020600 
41201.00 1225.57 100.138999 0.000000 59.052570 13.535093 14.011579 12.518415 0.000000 1.021341 
41101.00 1225.39 100.138999 0.000000 59.051931 13.526096 14.020017 12.518866 0.000000 1.022089 
41001.00 1225.21 100.138999 0.000000 59.051287 13.517033 14.028504 12.519333 0.000000 1.022842 
40901.00 1225.04 100.138999 0.000000 59.050637 13.507903 14.037042 12.519815 0.000000 1.023602 
40801.00 1224.86 100.138999 0.000000 59.049981 13.498705 14.045631 12.520314 0.000000 1.024368 
40701.00 1224.68 100.138999 0.000000 59.049319 13.489439 14.054272 12.520829 0.000000 1.025140 
40601.00 1224.50 100.138999 0.000000 59.048652 13.480104 14.062964 12.521360 0.000000 1.025919 
40501.00 1224.33 100.138999 0.000000 59.047978 13.470699 14.071709 12.521908 0.000000 1.026704 
40401.00 1224.15 100.138999 0.000000 59.047299 13.461223 14.080507 12.522473 0.000000 1.027497 
40301.00 1223.97 100.138999 0.000000 59.046613 13.451677 14.089359 12.523055 0.000000 1.028295 
40201.00 1223.79 100.138999 0.000000 59.045921 13.442058 14.098264 12.523655 0.000000 1.029101 
40101.00 1223.61 100.138999 0.000000 59.045223 13.432367 14.107224 12.524271 0.000000 1.029914 
40001.00 1223.44 100.138999 0.000000 59.044518 13.422602 14.116239 12.524906 0.000000 1.030734 
39901.00 1223.26 100.138999 0.000000 59.043807 13.412764 14.125310 12.525558 0.000000 1.031561 
39801.00 1223.08 100.138999 0.000000 59.043089 13.402850 14.134437 12.526228 0.000000 1.032396 
39701.00 1222.90 100.138999 0.000000 59.042364 13.392861 14.143620 12.526916 0.000000 1.033237 
39601.00 1222.72 100.138999 0.000000 59.041633 13.382795 14.152861 12.527623 0.000000 1.034087 
39501.00 1222.55 100.138999 0.000000 59.040895 13.372652 14.162160 12.528348 0.000000 1.034944 
39401.00 1222.37 100.138999 0.000000 59.040149 13.362431 14.171518 12.529093 0.000000 1.035809 
39301.00 1222.19 100.138999 0.000000 59.039396 13.352131 14.180934 12.529856 0.000000 1.036682 
39201.00 1222.01 100.138999 0.000000 59.038637 13.341751 14.190410 12.530639 0.000000 1.037562 
39101.00 1221.83 100.138999 0.000000 59.037869 13.331291 14.199947 12.531441 0.000000 1.038451 
39001.00 1221.65 100.138999 0.000000 59.037094 13.320749 14.209544 12.532263 0.000000 1.039349 
38901.00 1221.48 100.138999 0.000000 59.036312 13.310125 14.219203 12.533105 0.000000 1.040254 
38801.00 1221.30 100.138999 0.000000 59.035522 13.299418 14.228924 12.533967 0.000000 1.041168 
38701.00 1221.12 100.138999 0.000000 59.034723 13.288627 14.238708 12.534849 0.000000 1.042091 
38601.00 1220.94 100.138999 0.000000 59.033917 13.277751 14.248556 12.535752 0.000000 1.043023 
38501.00 1220.76 100.138999 0.000000 59.033103 13.266789 14.258467 12.536677 0.000000 1.043964 
38401.00 1220.58 100.138999 0.000000 59.032280 13.255740 14.268444 12.537622 0.000000 1.044914 
38301.00 1220.41 100.138999 0.000000 59.031449 13.244603 14.278486 12.538589 0.000000 1.045873 
38201.00 1220.23 100.138999 0.000000 59.030609 13.233377 14.288595 12.539577 0.000000 1.046841 
38101.00 1220.05 100.138999 0.000000 59.029761 13.222062 14.298770 12.540587 0.000000 1.047819 
38001.00 1219.87 100.138999 0.000000 59.028903 13.210656 14.309013 12.541620 0.000000 1.048807 
37901.00 1219.69 100.138999 0.000000 59.028037 13.199158 14.319325 12.542675 0.000000 1.049805 
37801.00 1219.51 100.138999 0.000000 59.027162 13.187567 14.329705 12.543752 0.000000 1.050813 
37701.00 1219.33 100.138999 0.000000 59.026277 13.175882 14.340156 12.544853 0.000000 1.051831 
37601.00 1219.16 100.138999 0.000000 59.025382 13.164103 14.350678 12.545977 0.000000 1.052859 
37501.00 1218.98 100.138999 0.000000 59.024478 13.152227 14.361271 12.547124 0.000000 1.053899 
37401.00 1218.80 100.138999 0.000000 59.023564 13.140255 14.371936 12.548295 0.000000 1.054948 
37301.00 1218.62 100.138999 0.000000 59.022641 13.128184 14.382675 12.549491 0.000000 1.056009 
37201.00 1218.44 100.138999 0.000000 59.021707 13.116014 14.393488 12.550710 0.000000 1.057081 
37101.00 1218.26 100.138999 0.000000 59.020762 13.103743 14.404375 12.551955 0.000000 1.058164 
37001.00 1218.08 100.138999 0.000000 59.019807 13.091370 14.415338 12.553224 0.000000 1.059259 
36901.00 1217.90 100.138999 0.000000 59.018842 13.078895 14.426378 12.554519 0.000000 1.060366 
36801.00 1217.72 100.138999 0.000000 59.017865 13.066316 14.437495 12.555839 0.000000 1.061484 
36701.00 1217.54 100.138999 0.000000 59.016877 13.053631 14.448691 12.557185 0.000000 1.062615 
36601.00 1217.37 100.138999 0.000000 59.015878 13.040840 14.459965 12.558558 0.000000 1.063758 
36501.00 1217.19 100.138999 0.000000 59.014868 13.027940 14.471320 12.559957 0.000000 1.064914 
36401.00 1217.01 100.138999 0.000000 59.013845 13.014932 14.482757 12.561383 0.000000 1.066082 
36301.00 1216.83 100.138999 0.000000 59.012811 13.001813 14.494275 12.562836 0.000000 1.067263 
36201.00 1216.65 100.138999 0.000000 59.011765 12.988583 14.505877 12.564317 0.000000 1.068458 
36101.00 1216.47 100.138999 0.000000 59.010706 12.975239 14.517562 12.565825 0.000000 1.069667 
36001.00 1216.29 100.138999 0.000000 59.009635 12.961781 14.529333 12.567362 0.000000 1.070889 
35901.00 1216.11 100.138999 0.000000 59.008550 12.948206 14.541190 12.568928 0.000000 1.072125 
35801.00 1215.93 100.138999 0.000000 59.007453 12.934514 14.553134 12.570522 0.000000 1.073375 
35701.00 1215.75 100.138999 0.000000 59.006342 12.920704 14.565167 12.572146 0.000000 1.074640 
35601.00 1215.57 100.138999 0.000000 59.005218 12.906773 14.577289 12.573800 0.000000 1.075920 
35501.00 1215.39 100.138999 0.000000 59.004080 12.892720 14.589501 12.575484 0.000000 1.077215 
35401.00 1215.21 100.138999 0.000000 59.002928 12.878543 14.601805 12.577198 0.000000 1.078525 
35301.00 1215.03 100.138999 0.000000 59.001761 12.864242 14.614202 12.578943 0.000000 1.079851 
35201.00 1214.85 100.138999 0.000000 59.000580 12.849814 14.626694 12.580720 0.000000 1.081193 
35101.00 1214.67 100.138999 0.000000 58.999383 12.835257 14.639280 12.582528 0.000000 1.082551 
35001.00 1214.49 100.138999 0.000000 58.998172 12.820571 14.651963 12.584368 0.000000 1.083925 
34901.00 1214.31 100.138999 0.000000 58.996945 12.805753 14.664743 12.586241 0.000000 1.085317 
34801.00 1214.13 100.138999 0.000000 58.995702 12.790802 14.677623 12.588147 0.000000 1.086726 
34701.00 1213.95 100.138999 0.000000 58.994443 12.775715 14.690603 12.590086 0.000000 1.088152 
34601.00 1213.77 100.138999 0.000000 58.993167 12.760492 14.703684 12.592060 0.000000 1.089597 
34501.00 1213.59 100.138999 0.000000 58.991875 12.745130 14.716868 12.594067 0.000000 1.091059 
34401.00 1213.41 100.138999 0.000000 58.990565 12.729627 14.730157 12.596109 0.000000 1.092541 
34301.00 1213.23 100.138999 0.000000 58.989238 12.713982 14.743552 12.598187 0.000000 1.094041 
34201.00 1213.05 100.138999 0.000000 58.987893 12.698192 14.757053 12.600300 0.000000 1.095561 
34101.00 1212.87 100.138999 0.000000 58.986530 12.682256 14.770664 12.602449 0.000000 1.097100 
34001.00 1212.69 100.138999 0.000000 58.985148 12.666172 14.784384 12.604635 0.000000 1.098659 
33901.00 1212.51 100.138999 0.000000 58.983748 12.649937 14.798217 12.606859 0.000000 1.100240 
33801.00 1212.32 100.138999 0.000000 58.982328 12.633549 14.812162 12.609120 0.000000 1.101841 
33701.00 1212.14 100.138999 0.000000 58.980888 12.617007 14.826222 12.611419 0.000000 1.103463 
33601.00 1211.96 100.138999 0.000000 58.979428 12.600308 14.840399 12.613757 0.000000 1.105107 
33501.00 1211.78 100.138999 0.000000 58.977947 12.583449 14.854694 12.616134 0.000000 1.106774 
33401.00 1211.60 100.138999 0.000000 58.976446 12.566430 14.869109 12.618551 0.000000 1.108464 
33301.00 1211.42 100.138999 0.000000 58.974923 12.549246 14.883645 12.621009 0.000000 1.110176 
33201.00 1211.24 100.138999 0.000000 58.973378 12.531897 14.898304 12.623508 0.000000 1.111913 
33101.00 1211.06 100.138999 0.000000 58.971810 12.514379 14.913089 12.626048 0.000000 1.113673 
33001.00 1210.87 100.138999 0.000000 58.970220 12.496690 14.928000 12.628630 0.000000 1.115459 
32901.00 1210.69 100.138999 0.000000 58.968607 12.478827 14.943041 12.631256 0.000000 1.117269 
32801.00 1210.51 100.138999 0.000000 58.966969 12.460788 14.958211 12.633924 0.000000 1.119106 
32701.00 1210.33 100.138999 0.000000 58.965307 12.442571 14.973515 12.636637 0.000000 1.120969 
32601.00 1210.15 100.138999 0.000000 58.963621 12.424172 14.988953 12.639394 0.000000 1.122858 
32501.00 1209.97 100.138999 0.000000 58.961908 12.405589 15.004528 12.642197 0.000000 1.124776 
32401.00 1209.78 100.138999 0.000000 58.960170 12.386820 15.020242 12.645046 0.000000 1.126721 
32301.00 1209.60 100.138999 0.000000 58.958405 12.367860 15.036097 12.647942 0.000000 1.128695 
32201.00 1209.42 100.138999 0.000000 58.956613 12.348708 15.052095 12.650885 0.000000 1.130699 
32101.00 1209.24 100.138999 0.000000 58.954793 12.329359 15.068239 12.653876 0.000000 1.132732 
32001.00 1209.05 100.138999 0.000000 58.952945 12.309813 15.084530 12.656916 0.000000 1.134796 
31901.00 1208.87 100.138999 0.000000 58.951067 12.290064 15.100971 12.660005 0.000000 1.136892 
31801.00 1208.69 100.138999 0.000000 58.949160 12.270110 15.117564 12.663145 0.000000 1.139019 
31701.00 1208.51 100.138999 0.000000 58.947223 12.249947 15.134313 12.666337 0.000000 1.141180 
31601.00 1208.32 100.138999 0.000000 58.945254 12.229573 15.151219 12.669580 0.000000 1.143374 
31501.00 1208.14 100.138999 0.000000 58.943253 12.208984 15.168284 12.672876 0.000000 1.145602 
31401.00 1207.96 100.138999 0.000000 58.941220 12.188175 15.185513 12.676225 0.000000 1.147865 
31301.00 1207.77 100.138999 0.000000 58.939154 12.167145 15.202907 12.679629 0.000000 1.150164 
31201.00 1207.59 100.138999 0.000000 58.937053 12.145889 15.220468 12.683088 0.000000 1.152500 
31101.00 1207.41 100.138999 0.000000 58.934918 12.124402 15.238201 12.686604 0.000000 1.154874 
31001.00 1207.22 100.138999 0.000000 58.932747 12.102683 15.256107 12.690177 0.000000 1.157286 
30901.00 1207.04 100.138999 0.000000 58.930539 12.080725 15.274191 12.693807 0.000000 1.159737 
30801.00 1206.86 100.138999 0.000000 58.928294 12.058526 15.292453 12.697497 0.000000 1.162229 
30701.00 1206.67 100.138999 0.000000 58.926010 12.036082 15.310899 12.701246 0.000000 1.164762 
30601.00 1206.49 100.138999 0.000000 58.923687 12.013387 15.329531 12.705057 0.000000 1.167337 
30501.00 1206.30 100.138999 0.000000 58.921324 11.990438 15.348352 12.708930 0.000000 1.169955 
30401.00 1206.12 100.138999 0.000000 58.918920 11.967231 15.367366 12.712865 0.000000 1.172617 
30301.00 1205.93 100.138999 0.000000 58.916473 11.943760 15.386576 12.716865 0.000000 1.175325 
30201.00 1205.75 100.138999 0.000000 58.913984 11.920021 15.405986 12.720930 0.000000 1.178079 
30101.00 1205.57 100.138999 0.000000 58.911450 11.896009 15.425599 12.725061 0.000000 1.180881 
30001.00 1205.38 100.138999 0.000000 58.908870 11.871720 15.445418 12.729259 0.000000 1.183732 
29901.00 1205.20 100.138999 0.000000 58.906244 11.847148 15.465449 12.733526 0.000000 1.186632 
29801.00 1205.01 100.138999 0.000000 58.903571 11.822288 15.485694 12.737863 0.000000 1.189584 
29701.00 1204.82 100.138999 0.000000 58.900848 11.797134 15.506158 12.742271 0.000000 1.192588 
29601.00 1204.64 100.138999 0.000000 58.898076 11.771683 15.526844 12.746751 0.000000 1.195646 
29501.00 1204.45 100.138999 0.000000 58.895252 11.745927 15.547757 12.751305 0.000000 1.198758 
29401.00 1204.27 100.138999 0.000000 58.892375 11.719861 15.568902 12.755934 0.000000 1.201928 
29301.00 1204.08 100.138999 0.000000 58.889444 11.693480 15.590282 12.760639 0.000000 1.205155 
29201.00 1203.90 100.138999 0.000000 58.886458 11.666777 15.611902 12.765421 0.000000 1.208441 
29101.00 1203.71 100.138999 0.000000 58.883415 11.639745 15.633767 12.770283 0.000000 1.211789 
29001.00 1203.52 100.138999 0.000000 58.880314 11.612380 15.655882 12.775225 0.000000 1.215198 
28901.00 1203.34 100.138999 0.000000 58.877153 11.584674 15.678251 12.780249 0.000000 1.218672 
28801.00 1203.15 100.138999 0.000000 58.873931 11.556621 15.700879 12.785357 0.000000 1.222211 
28701.00 1202.96 100.138999 0.000000 58.870646 11.528213 15.723773 12.790549 0.000000 1.225818 
28601.00 1202.78 100.138999 0.000000 58.867296 11.499444 15.746936 12.795829 0.000000 1.229494 
28501.00 1202.59 100.138999 0.000000 58.863880 11.470306 15.770375 12.801197 0.000000 1.233241 
28401.00 1202.40 100.138999 0.000000 58.860396 11.440793 15.794095 12.806655 0.000000 1.237060 
28301.00 1202.21 100.138999 0.000000 58.856842 11.410896 15.818102 12.812205 0.000000 1.240954 
28201.00 1202.03 100.138999 0.000000 58.853216 11.380608 15.842402 12.817849 0.000000 1.244925 
28101.00 1201.84 100.138999 0.000000 58.849517 11.349920 15.867000 12.823588 0.000000 1.248974 
28001.00 1201.65 100.138999 0.000000 58.845742 11.318825 15.891903 12.829424 0.000000 1.253105 
27901.00 1201.46 100.138999 0.000000 58.841890 11.287313 15.917118 12.835360 0.000000 1.257318 
27801.00 1201.27 100.138999 0.000000 58.837957 11.255377 15.942652 12.841397 0.000000 1.261616 
27701.00 1201.08 100.138999 0.000000 58.833943 11.223007 15.968509 12.847538 0.000000 1.266002 
27601.00 1200.89 100.138999 0.000000 58.829845 11.190194 15.994699 12.853784 0.000000 1.270477 
27501.00 1200.70 100.138999 0.000000 58.825661 11.156928 16.021228 12.860138 0.000000 1.275045 
27401.00 1200.52 100.138999 0.000000 58.821387 11.123201 16.048103 12.866601 0.000000 1.279707 
27301.00 1200.33 100.138999 0.000000 58.817023 11.089001 16.075331 12.873177 0.000000 1.284467 
27201.00 1200.14 100.138999 0.000000 58.812565 11.054319 16.102922 12.879867 0.000000 1.289326 
27101.00 1199.95 100.138999 0.000000 58.808011 11.019144 16.130882 12.886675 0.000000 1.294288 
27001.00 1199.75 100.138999 0.000000 58.803357 10.983465 16.159219 12.893602 0.000000 1.299356 
26901.00 1199.56 100.138999 0.000000 58.798603 10.947271 16.187943 12.900650 0.000000 1.304532 
26801.00 1199.37 100.138999 0.000000 58.793743 10.910551 16.217062 12.907824 0.000000 1.309819 
26701.00 1199.18 100.138999 0.000000 58.788777 10.873293 16.246585 12.915124 0.000000 1.315221 
26601.00 1198.99 100.138999 0.000000 58.783700 10.835484 16.276520 12.922555 0.000000 1.320740 
26501.00 1198.80 100.138999 0.000000 58.778509 10.797113 16.306878 12.930119 0.000000 1.326380 
26401.00 1198.61 100.138999 0.000000 58.773202 10.758166 16.337668 12.937819 0.000000 1.332145 
26301.00 1198.41 100.138999 0.000000 58.767775 10.718630 16.368900 12.945657 0.000000 1.338037 
26201.00 1198.22 100.138999 0.000000 58.762225 10.678492 16.400584 12.953638 0.000000 1.344061 
26101.00 1198.03 100.138999 0.000000 58.756548 10.637738 16.432730 12.961764 0.000000 1.350219 
26001.00 1197.84 100.138999 0.000000 58.750740 10.596354 16.465350 12.970038 0.000000 1.356516 
25901.00 1197.64 100.138999 0.000000 58.744799 10.554324 16.498455 12.978465 0.000000 1.362956 
25801.00 1197.45 100.138999 0.000000 58.738719 10.511635 16.532056 12.987047 0.000000 1.369542 
25701.00 1197.25 100.138999 0.000000 58.732498 10.468269 16.566165 12.995787 0.000000 1.376280 
25601.00 1197.06 100.138999 0.000000 58.726132 10.424211 16.600794 13.004691 0.000000 1.383172 
25501.00 1196.87 100.138999 0.000000 58.719615 10.379445 16.635954 13.013761 0.000000 1.390224 
25401.00 1196.67 100.138999 0.000000 58.712944 10.333953 16.671660 13.023002 0.000000 1.397440 
25301.00 1196.47 100.138999 0.000000 58.706115 10.287719 16.707925 13.032417 0.000000 1.404824 
25201.00 1196.28 100.138999 0.000000 58.699122 10.240724 16.744760 13.042010 0.000000 1.412382 
25101.00 1196.08 100.138999 0.000000 58.691962 10.192950 16.782182 13.051787 0.000000 1.420118 
25001.00 1195.89 100.138999 0.000000 58.684629 10.144378 16.820203 13.061751 0.000000 1.428038 
24901.00 1195.69 100.138999 0.000000 58.677118 10.094989 16.858839 13.071907 0.000000 1.436147 
24801.00 1195.49 100.138999 0.000000 58.669425 10.044761 16.898105 13.082259 0.000000 1.444449 
24701.00 1195.30 100.138999 0.000000 58.661543 9.993676 16.938015 13.092813 0.000000 1.452952 
24601.00 1195.10 100.138999 0.000000 58.653469 9.941710 16.978587 13.103573 0.000000 1.461659 
24501.00 1194.90 100.138999 0.000000 58.645195 9.888844 17.019837 13.114545 0.000000 1.470578 
24401.00 1194.70 100.138999 0.000000 58.636717 9.835053 17.061780 13.125733 0.000000 1.479715 
24301.00 1194.50 100.138999 0.000000 58.628028 9.780316 17.104436 13.137144 0.000000 1.489075 
24201.00 1194.30 100.138999 0.000000 58.619122 9.724607 17.147822 13.148783 0.000000 1.498666 
24101.00 1194.10 100.138999 0.000000 58.609994 9.667903 17.191955 13.160655 0.000000 1.508493 
24001.00 1193.90 100.138999 0.000000 58.600636 9.610178 17.236856 13.172766 0.000000 1.518563 
23901.00 1193.70 100.138999 0.000000 58.591041 9.551406 17.282544 13.185123 0.000000 1.528885 
23801.00 1193.50 100.138999 0.000000 58.581204 9.491561 17.329038 13.197733 0.000000 1.539464 
23701.00 1193.30 100.138999 0.000000 58.571117 9.430614 17.376359 13.210601 0.000000 1.550309 
