Title: Depleted MORB Mantle of Workmann & Hart 2005

Liquid Composition:
Pressure Temperature mass SiO2 TiO2 Al2O3 Fe2O3 Cr2O3 FeO MnO MgO NiO CaO Na2O 
44001.00 1252.17 0.000000 ---
43901.00 1251.99 0.000000 ---
43801.00 1251.81 0.000000 ---
43701.00 1251.63 0.000000 ---
43601.00 1251.45 0.000000 ---
43501.00 1251.26 0.000000 ---
43401.00 1251.08 0.000000 ---
43301.00 1250.90 0.000000 ---
43201.00 1250.72 0.000000 ---
43101.00 1250.54 0.000000 ---
43001.00 1250.36 0.000000 ---
42901.00 1250.18 0.000000 ---
42801.00 1250.00 0.000000 ---
42701.00 1249.81 0.000000 ---
42601.00 1249.63 0.000000 ---
42501.00 1249.45 0.000000 ---
42401.00 1249.27 0.000000 ---
42301.00 1249.09 0.000000 ---
42201.00 1248.91 0.000000 ---
42101.00 1248.73 0.000000 ---
42001.00 1248.55 0.000000 ---
41901.00 1248.36 0.000000 ---
41801.00 1248.18 0.000000 ---
41701.00 1248.00 0.000000 ---
41601.00 1247.82 0.000000 ---
41501.00 1247.64 0.000000 ---
41401.00 1247.46 0.000000 ---
41301.00 1247.27 0.000000 ---
41201.00 1247.09 0.000000 ---
41101.00 1246.91 0.000000 ---
41001.00 1246.73 0.000000 ---
40901.00 1246.55 0.000000 ---
40801.00 1246.37 0.000000 ---
40701.00 1246.18 0.000000 ---
40601.00 1246.00 0.000000 ---
40501.00 1245.82 0.000000 ---
40401.00 1245.64 0.000000 ---
40301.00 1245.46 0.000000 ---
40201.00 1245.28 0.000000 ---
40101.00 1245.09 0.000000 ---
40001.00 1244.91 0.000000 ---
39901.00 1244.73 0.000000 ---
39801.00 1244.55 0.000000 ---
39701.00 1244.37 0.000000 ---
39601.00 1244.18 0.000000 ---
39501.00 1244.00 0.000000 ---
39401.00 1243.82 0.000000 ---
39301.00 1243.64 0.000000 ---
39201.00 1243.46 0.000000 ---
39101.00 1243.27 0.000000 ---
39001.00 1243.09 0.000000 ---
38901.00 1242.91 0.000000 ---
38801.00 1242.73 0.000000 ---
38701.00 1242.54 0.000000 ---
38601.00 1242.36 0.000000 ---
38501.00 1242.18 0.000000 ---
38401.00 1242.00 0.000000 ---
38301.00 1241.81 0.000000 ---
38201.00 1241.63 0.000000 ---
38101.00 1241.45 0.000000 ---
38001.00 1241.27 0.000000 ---
37901.00 1241.08 0.000000 ---
37801.00 1240.90 0.000000 ---
37701.00 1240.72 0.000000 ---
37601.00 1240.54 0.000000 ---
37501.00 1240.35 0.000000 ---
37401.00 1240.17 0.000000 ---
37301.00 1239.99 0.000000 ---
37201.00 1239.80 0.000000 ---
37101.00 1239.62 0.000000 ---
37001.00 1239.44 0.000000 ---
36901.00 1239.25 0.000000 ---
36801.00 1239.07 0.000000 ---
36701.00 1238.89 0.000000 ---
36601.00 1238.70 0.000000 ---
36501.00 1238.52 0.000000 ---
36401.00 1238.34 0.000000 ---
36301.00 1238.15 0.000000 ---
36201.00 1237.97 0.000000 ---
36101.00 1237.79 0.000000 ---
36001.00 1237.60 0.000000 ---
35901.00 1237.42 0.000000 ---
35801.00 1237.24 0.000000 ---
35701.00 1237.05 0.000000 ---
35601.00 1236.87 0.000000 ---
35501.00 1236.68 0.000000 ---
35401.00 1236.50 0.000000 ---
35301.00 1236.32 0.000000 ---
35201.00 1236.13 0.000000 ---
35101.00 1235.95 0.000000 ---
35001.00 1235.76 0.000000 ---
34901.00 1235.58 0.000000 ---
34801.00 1235.39 0.000000 ---
34701.00 1235.21 0.000000 ---
34601.00 1235.03 0.000000 ---
34501.00 1234.84 0.000000 ---
34401.00 1234.66 0.000000 ---
34301.00 1234.47 0.000000 ---
34201.00 1234.29 0.000000 ---
34101.00 1234.10 0.000000 ---
34001.00 1233.92 0.000000 ---
33901.00 1233.73 0.000000 ---
33801.00 1233.55 0.000000 ---
33701.00 1233.36 0.000000 ---
33601.00 1233.18 0.000000 ---
33501.00 1232.99 0.000000 ---
33401.00 1232.80 0.000000 ---
33301.00 1232.62 0.000000 ---
33201.00 1232.43 0.000000 ---
33101.00 1232.25 0.000000 ---
33001.00 1232.06 0.000000 ---
32901.00 1231.88 0.000000 ---
32801.00 1231.69 0.000000 ---
32701.00 1231.50 0.000000 ---
32601.00 1231.32 0.000000 ---
32501.00 1231.13 0.000000 ---
32401.00 1230.94 0.000000 ---
32301.00 1230.76 0.000000 ---
32201.00 1230.57 0.000000 ---
32101.00 1230.38 0.000000 ---
32001.00 1230.20 0.000000 ---
31901.00 1230.01 0.000000 ---
31801.00 1229.82 0.000000 ---
31701.00 1229.64 0.000000 ---
31601.00 1229.45 0.000000 ---
31501.00 1229.26 0.000000 ---
31401.00 1229.07 0.000000 ---
31301.00 1228.89 0.000000 ---
31201.00 1228.70 0.000000 ---
31101.00 1228.51 0.000000 ---
31001.00 1228.32 0.000000 ---
30901.00 1228.13 0.000000 ---
30801.00 1227.95 0.000000 ---
30701.00 1227.76 0.000000 ---
30601.00 1227.57 0.000000 ---
30501.00 1227.38 0.000000 ---
30401.00 1227.19 0.000000 ---
30301.00 1227.00 0.000000 ---
30201.00 1226.81 0.000000 ---
30101.00 1226.62 0.000000 ---
30001.00 1226.43 0.000000 ---
29901.00 1226.24 0.000000 ---
29801.00 1226.05 0.000000 ---
29701.00 1225.86 0.000000 ---
29601.00 1225.67 0.000000 ---
29501.00 1225.48 0.000000 ---
29401.00 1225.29 0.000000 ---
29301.00 1225.10 0.000000 ---
29201.00 1224.91 0.000000 ---
29101.00 1224.72 0.000000 ---
29001.00 1224.53 0.000000 ---
28901.00 1224.34 0.000000 ---
28801.00 1224.15 0.000000 ---
28701.00 1223.95 0.000000 ---
28601.00 1223.76 0.000000 ---
28501.00 1223.57 0.000000 ---
28401.00 1223.38 0.000000 ---
28301.00 1223.19 0.000000 ---
28201.00 1222.99 0.000000 ---
28101.00 1222.80 0.000000 ---
28001.00 1222.61 0.000000 ---
27901.00 1222.41 0.000000 ---
27801.00 1222.22 0.000000 ---
27701.00 1222.03 0.000000 ---
27601.00 1221.83 0.000000 ---
27501.00 1221.64 0.000000 ---
27401.00 1221.44 0.000000 ---
27301.00 1221.25 0.000000 ---
27201.00 1221.05 0.000000 ---
27101.00 1220.86 0.000000 ---
27001.00 1220.66 0.000000 ---
26901.00 1220.47 0.000000 ---
26801.00 1220.27 0.000000 ---
26701.00 1220.07 0.000000 ---
26601.00 1219.88 0.000000 ---
26501.00 1219.68 0.000000 ---
26401.00 1219.48 0.000000 ---
26301.00 1219.29 0.000000 ---
26201.00 1219.09 0.000000 ---
26101.00 1218.89 0.000000 ---
26001.00 1218.69 0.000000 ---
25901.00 1218.49 0.000000 ---
25801.00 1218.29 0.000000 ---
25701.00 1218.09 0.000000 ---
25601.00 1217.89 0.000000 ---
25501.00 1217.69 0.000000 ---
25401.00 1217.49 0.000000 ---
25301.00 1217.29 0.000000 ---
25201.00 1217.09 0.000000 ---
25101.00 1216.89 0.000000 ---
25001.00 1216.69 0.000000 ---
24901.00 1216.49 0.000000 ---
24801.00 1216.28 0.000000 ---
24701.00 1216.08 0.000000 ---
24601.00 1215.88 0.000000 ---
24501.00 1215.67 0.000000 ---
24401.00 1215.47 0.000000 ---
24301.00 1215.26 0.000000 ---
24201.00 1215.06 0.000000 ---
24101.00 1214.85 0.000000 ---
24001.00 1214.64 0.000000 ---
23901.00 1214.44 0.000000 ---
23801.00 1214.23 0.000000 ---
23701.00 1214.02 0.000000 ---
23601.00 1213.81 0.000000 ---
23501.00 1213.61 0.000000 ---
23401.00 1213.40 0.000000 ---
23301.00 1213.19 0.000000 ---
23201.00 1212.98 0.000000 ---
23101.00 1212.76 0.000000 ---
23001.00 1212.55 0.000000 ---
22901.00 1212.34 0.000000 ---
22801.00 1212.13 0.000000 ---
22701.00 1211.91 0.000000 ---
22601.00 1211.70 0.000000 ---
22501.00 1211.49 0.000000 ---
22401.00 1211.27 0.000000 ---
22301.00 1211.05 0.000000 ---
22201.00 1210.84 0.000000 ---
22101.00 1210.62 0.000000 ---
22001.00 1210.40 0.000000 ---
21901.00 1210.18 0.000000 ---
21801.00 1209.96 0.000000 ---
21701.00 1209.74 0.000000 ---
21601.00 1209.52 0.000000 ---
21501.00 1209.30 0.000000 ---
21401.00 1209.07 0.000000 ---
21301.00 1208.85 0.000000 ---
21201.00 1208.62 0.000000 ---
21101.00 1208.40 0.000000 ---
21001.00 1208.17 0.000000 ---
20901.00 1207.94 0.000000 ---
20801.00 1207.71 0.000000 ---
20701.00 1207.48 0.000000 ---
20601.00 1207.25 0.000000 ---
20501.00 1207.02 0.000000 ---
20401.00 1206.79 0.000000 ---
20301.00 1206.55 0.000000 ---
20201.00 1206.32 0.000000 ---
20101.00 1206.08 0.000000 ---
20001.00 1205.84 0.000000 ---
19901.00 1205.60 0.000000 ---
19801.00 1205.36 0.000000 ---
19701.00 1205.11 0.000000 ---
19601.00 1204.87 0.000000 ---
19501.00 1204.62 0.000000 ---
19401.00 1204.38 0.000000 ---
19301.00 1204.13 0.000000 ---
19201.00 1203.88 0.000000 ---
19101.00 1203.62 0.000000 ---
19001.00 1203.37 0.000000 ---
18901.00 1203.11 0.000000 ---
18801.00 1202.85 0.000000 ---
18701.00 1202.59 0.000000 ---
18601.00 1202.33 0.000000 ---
18501.00 1202.06 0.000000 ---
18401.00 1201.80 0.000000 ---
18301.00 1201.53 0.000000 ---
18201.00 1201.25 0.000000 ---
18101.00 1200.98 0.000000 ---
18001.00 1200.70 0.000000 ---
17901.00 1200.42 0.000000 ---
17801.00 1200.13 0.000000 ---
17701.00 1199.85 0.000000 ---
17601.00 1199.56 0.000000 ---
17501.00 1199.26 0.000000 ---
17401.00 1199.03 0.000000 ---
17301.00 1198.87 0.000000 ---
17201.00 1198.70 0.000000 ---
17101.00 1198.53 0.000000 ---
17001.00 1198.36 0.000000 ---
16901.00 1198.19 0.000000 ---
16801.00 1198.02 0.000000 ---
16701.00 1197.86 0.000000 ---
16601.00 1197.69 0.000000 ---
16501.00 1197.52 0.000000 ---
16401.00 1197.35 0.000000 ---
16301.00 1197.18 0.000000 ---
16201.00 1197.02 0.000000 ---
16101.00 1196.85 0.000000 ---
16001.00 1196.68 0.000000 ---
15901.00 1196.51 0.000000 ---
15801.00 1196.34 0.000000 ---
15701.00 1196.17 0.000000 ---
15601.00 1196.01 0.000000 ---
15501.00 1195.84 0.000000 ---
15401.00 1195.67 0.000000 ---
15301.00 1195.50 0.000000 ---
15201.00 1195.33 0.000000 ---
15101.00 1195.17 0.000000 ---
15001.00 1195.00 0.000000 ---
14901.00 1194.83 0.000000 ---
14801.00 1194.66 0.000000 ---
14701.00 1194.49 0.000000 ---
14601.00 1194.33 0.000000 ---
14501.00 1194.16 0.000000 ---
14401.00 1193.99 0.000000 ---
14301.00 1193.82 0.000000 ---
14201.00 1193.65 0.000000 ---
14101.00 1193.49 0.000000 ---
14001.00 1193.32 0.000000 ---
13901.00 1193.15 0.000000 ---
13801.00 1192.98 0.000000 ---
13701.00 1192.81 0.000000 ---
13601.00 1192.65 0.000000 ---
13501.00 1192.48 0.000000 ---
13401.00 1192.31 0.000000 ---
13301.00 1192.14 0.000000 ---
13201.00 1191.97 0.000000 ---
13101.00 1191.81 0.000000 ---
13001.00 1191.64 0.000000 ---
12901.00 1191.47 0.000000 ---
12801.00 1191.30 0.000000 ---
12701.00 1191.14 0.000000 ---
12601.00 1190.97 0.000000 ---
12501.00 1190.80 0.000000 ---
12401.00 1190.63 0.000000 ---
12301.00 1190.46 0.000000 ---
12201.00 1190.30 0.000000 ---
12101.00 1190.13 0.000000 ---
12001.00 1189.96 0.000000 ---
11901.00 1189.79 0.000000 ---
11801.00 1189.62 0.000000 ---
11701.00 1189.46 0.000000 ---
11601.00 1189.29 0.000000 ---
11501.00 1189.12 0.000000 ---
11401.00 1188.95 0.000000 ---
11301.00 1188.79 0.000000 ---
11201.00 1188.62 0.000000 ---
11101.00 1188.45 0.000000 ---
11001.00 1188.28 0.000000 ---
10901.00 1188.11 0.000000 ---
10801.00 1187.95 0.000000 ---
10701.00 1187.78 0.000000 ---
10601.00 1187.61 0.000000 ---
10501.00 1187.44 0.000000 ---
10401.00 1187.27 0.000000 ---
10301.00 1187.11 0.000000 ---
10201.00 1186.94 0.000000 ---
10101.00 1186.77 0.000000 ---
10001.00 1186.60 0.000000 ---
9901.00 1186.44 0.000000 ---
9801.00 1186.27 0.000000 ---
9701.00 1186.10 0.000000 ---
9601.00 1185.93 0.000000 ---
9501.00 1185.70 0.000000 ---
9401.00 1185.47 0.000000 ---
9301.00 1185.24 0.000000 ---
9201.00 1185.01 0.000000 ---
9101.00 1184.79 0.000000 ---
9001.00 1184.56 0.000000 ---
8901.00 1184.33 0.000000 ---
8801.00 1184.11 0.000000 ---
8701.00 1183.88 0.000000 ---
8601.00 1183.66 0.000000 ---
8501.00 1183.43 0.000000 ---
8401.00 1183.21 0.000000 ---
8301.00 1182.98 0.000000 ---
8201.00 1182.76 0.000000 ---
8101.00 1182.54 0.000000 ---
8001.00 1182.31 0.000000 ---
7901.00 1182.09 0.000000 ---
7801.00 1181.87 0.000000 ---
7701.00 1181.64 0.000000 ---
7601.00 1181.42 0.000000 ---
7501.00 1181.20 0.000000 ---
7401.00 1180.98 0.000000 ---
7301.00 1180.75 0.000000 ---
7201.00 1180.53 0.000000 ---
7101.00 1180.31 0.000000 ---
7001.00 1180.08 0.000000 ---
6901.00 1179.86 0.000000 ---
6801.00 1179.63 0.000000 ---
6701.00 1179.41 0.000000 ---
6601.00 1179.18 0.000000 ---
6501.00 1178.96 0.000000 ---
6401.00 1178.73 0.000000 ---
6301.00 1178.50 0.000000 ---
6201.00 1178.28 0.000000 ---
6101.00 1178.05 0.000000 ---
6001.00 1177.82 0.000000 ---
5901.00 1177.59 0.000000 ---
5801.00 1177.35 0.000000 ---
5701.00 1177.12 0.000000 ---
5601.00 1176.89 0.000000 ---
5501.00 1176.65 0.000000 ---
5401.00 1176.42 0.000000 ---
5301.00 1176.18 0.000000 ---
5201.00 1175.94 0.000000 ---
5101.00 1175.71 0.000000 ---
5001.00 1175.47 0.000000 ---
4901.00 1175.23 0.000000 ---
4801.00 1174.99 0.000000 ---
4701.00 1174.75 0.000000 ---
4601.00 1174.51 0.000000 ---
4501.00 1174.27 0.000000 ---
4401.00 1174.03 0.000000 ---
4301.00 1173.79 0.000000 ---
4201.00 1173.55 0.000000 ---
4101.00 1173.31 0.000000 ---
4001.00 1173.07 0.000000 ---
3901.00 1172.84 0.000000 ---
3801.00 1172.60 0.000000 ---
3701.00 1172.37 0.000000 ---
3601.00 1172.14 0.000000 ---
3501.00 1171.91 0.000000 ---
3401.00 1171.68 0.000000 ---
3301.00 1171.45 0.000000 ---
3201.00 1171.23 0.000000 ---
3101.00 1171.01 0.000000 ---
3001.00 1170.79 0.000000 ---
2901.00 1170.57 0.000000 ---
2801.00 1170.35 0.000000 ---
2701.00 1170.14 0.000000 ---
2601.00 1169.93 0.000000 ---
2501.00 1169.72 0.000000 ---
2401.00 1168.76 0.314591 57.0013 1.26635 17.7953 0.614858 0.0923821 3.4231 0.00322335 7.16204 0.00161007 10.5352 2.1046
2301.00 1167.14 0.912198 57.1284 1.22779 17.7743 0.615606 0.091544 3.39064 0.00314552 7.12954 0.00156861 10.5803 2.05718
2201.00 1165.49 1.527935 57.258 1.18941 17.7532 0.615673 0.090749 3.35759 0.00306941 7.09609 0.00152809 10.623 2.01175
2101.00 1163.82 1.621309 57.3899 1.15005 17.7325 0.615141 0.0899504 3.32421 0.00299446 7.06201 0.00148824 10.6643 1.96741
2001.00 1162.13 1.622944 57.524 1.1096 17.7124 0.614028 0.0891403 3.29061 0.00292059 7.02736 0.00144903 10.7047 1.9239
1901.00 1160.41 1.624491 57.6599 1.0682 17.6928 0.612342 0.0883184 3.25681 0.00284779 6.99221 0.00141045 10.744 1.88115
1801.00 1158.68 1.625963 57.7975 1.02596 17.6737 0.610094 0.0874846 3.22288 0.00277609 6.9566 0.00137252 10.7826 1.83906
1701.00 1156.92 1.627371 57.9364 0.98302 17.6553 0.607296 0.0866385 3.18886 0.00270549 6.92056 0.00133522 10.8204 1.79754
1601.00 1155.15 1.628722 58.0764 0.93953 17.6374 0.603961 0.0857799 3.15481 0.00263599 6.88416 0.00129857 10.8575 1.75648
1501.00 1153.35 1.630020 58.2172 0.895635 17.6202 0.600105 0.0849083 3.12077 0.00256759 6.84744 0.00126256 10.8942 1.71578
1401.00 1151.53 1.631265 58.3584 0.851488 17.6036 0.595745 0.0840232 3.0868 0.0025003 6.81046 0.0012272 10.9305 1.67533
1301.00 1149.68 1.632452 58.4998 0.807246 17.5876 0.590901 0.0831237 3.05295 0.0024341 6.77327 0.00119247 10.9665 1.63499
1201.00 1147.82 1.633571 58.6408 0.763068 17.5723 0.585595 0.0822089 3.01929 0.002369 6.73592 0.00115837 11.0026 1.59464
1101.00 1145.93 1.634600 58.7813 0.719116 17.5578 0.579848 0.0812773 2.98586 0.00230498 6.6985 0.0011249 11.0388 1.55413
1001.00 1144.02 1.635513 58.9207 0.675552 17.544 0.573687 0.0803272 2.95273 0.00224202 6.66106 0.00109205 11.0754 1.51329
901.00 1142.09 1.636268 59.0585 0.632539 17.531 0.567139 0.0793563 2.91998 0.0021801 6.62369 0.0010598 11.1126 1.47194
801.00 1140.13 1.636809 59.1944 0.590239 17.5188 0.560236 0.0783616 2.88767 0.00211918 6.58646 0.00102813 11.1508 1.42986
701.00 1138.15 1.637058 59.3277 0.548812 17.5076 0.553012 0.0773392 2.8559 0.00205924 6.54949 0.00099703 11.1903 1.38682
601.00 1136.15 1.636913 59.4579 0.508415 17.4974 0.545506 0.0762843 2.82476 0.00200021 6.51287 0.000966473 11.2314 1.34252
501.00 1134.12 1.636236 59.5841 0.469202 17.4882 0.537762 0.0751908 2.79437 0.00194205 6.47676 0.000936429 11.2748 1.29663
401.00 1132.08 1.634838 59.7057 0.431324 17.4803 0.529833 0.0740507 2.76486 0.00188467 6.4413 0.000906864 11.3211 1.24873
301.00 1130.01 1.632466 59.8217 0.394925 17.4737 0.521782 0.0728539 2.7364 0.00182799 6.4067 0.000877734 11.371 1.19833
201.00 1127.93 1.628768 59.9308 0.360147 17.4685 0.513683 0.0715875 2.70919 0.0017719 6.37319 0.000848986 11.4255 1.14479
101.00 1125.84 1.623258 60.0316 0.327126 17.4651 0.50563 0.0702348 2.6835 0.00171625 6.34109 0.000820558 11.4859 1.08731
1.00 1123.75 1.615247 60.1224 0.295995 17.4636 0.497743 0.0687742 2.65967 0.00166088 6.31079 0.000792373 11.5537 1.02487