Title: Depleted MORB Mantle of Workmann & Hart 2005

Liquid Composition:
Pressure Temperature mass SiO2 TiO2 Al2O3 Fe2O3 Cr2O3 FeO MnO MgO NiO CaO Na2O 
44001.00 1390.49 0.000000 ---
43901.00 1390.29 0.000000 ---
43801.00 1390.08 0.000000 ---
43701.00 1389.87 0.000000 ---
43601.00 1389.66 0.000000 ---
43501.00 1389.45 0.000000 ---
43401.00 1389.25 0.000000 ---
43301.00 1389.04 0.000000 ---
43201.00 1388.83 0.000000 ---
43101.00 1388.62 0.000000 ---
43001.00 1388.41 0.000000 ---
42901.00 1388.21 0.000000 ---
42801.00 1388.00 0.000000 ---
42701.00 1387.79 0.000000 ---
42601.00 1387.58 0.000000 ---
42501.00 1387.37 0.000000 ---
42401.00 1387.16 0.000000 ---
42301.00 1386.96 0.000000 ---
42201.00 1386.75 0.000000 ---
42101.00 1386.54 0.000000 ---
42001.00 1386.33 0.000000 ---
41901.00 1386.12 0.000000 ---
41801.00 1385.91 0.000000 ---
41701.00 1385.71 0.000000 ---
41601.00 1385.50 0.000000 ---
41501.00 1385.29 0.000000 ---
41401.00 1385.08 0.000000 ---
41301.00 1384.87 0.000000 ---
41201.00 1384.66 0.000000 ---
41101.00 1384.45 0.000000 ---
41001.00 1384.24 0.000000 ---
40901.00 1384.03 0.000000 ---
40801.00 1383.83 0.000000 ---
40701.00 1383.62 0.000000 ---
40601.00 1383.41 0.000000 ---
40501.00 1383.20 0.000000 ---
40401.00 1382.99 0.000000 ---
40301.00 1382.78 0.000000 ---
40201.00 1382.57 0.000000 ---
40101.00 1382.36 0.000000 ---
40001.00 1382.15 0.000000 ---
39901.00 1381.94 0.000000 ---
39801.00 1381.73 0.000000 ---
39701.00 1381.52 0.000000 ---
39601.00 1381.31 0.000000 ---
39501.00 1381.10 0.000000 ---
39401.00 1380.89 0.000000 ---
39301.00 1380.68 0.000000 ---
39201.00 1380.47 0.000000 ---
39101.00 1380.26 0.000000 ---
39001.00 1380.05 0.000000 ---
38901.00 1379.84 0.000000 ---
38801.00 1379.63 0.000000 ---
38701.00 1379.42 0.000000 ---
38601.00 1379.21 0.000000 ---
38501.00 1379.00 0.000000 ---
38401.00 1378.79 0.000000 ---
38301.00 1378.58 0.000000 ---
38201.00 1378.37 0.000000 ---
38101.00 1378.16 0.000000 ---
38001.00 1377.95 0.000000 ---
37901.00 1377.74 0.000000 ---
37801.00 1377.53 0.000000 ---
37701.00 1377.32 0.000000 ---
37601.00 1377.10 0.000000 ---
37501.00 1376.89 0.000000 ---
37401.00 1376.68 0.000000 ---
37301.00 1376.47 0.000000 ---
37201.00 1376.26 0.000000 ---
37101.00 1376.05 0.000000 ---
37001.00 1375.84 0.000000 ---
36901.00 1375.63 0.000000 ---
36801.00 1375.41 0.000000 ---
36701.00 1375.20 0.000000 ---
36601.00 1374.99 0.000000 ---
36501.00 1374.78 0.000000 ---
36401.00 1374.57 0.000000 ---
36301.00 1374.35 0.000000 ---
36201.00 1374.14 0.000000 ---
36101.00 1373.93 0.000000 ---
36001.00 1373.72 0.000000 ---
35901.00 1373.50 0.000000 ---
35801.00 1373.29 0.000000 ---
35701.00 1373.08 0.000000 ---
35601.00 1372.87 0.000000 ---
35501.00 1372.65 0.000000 ---
35401.00 1372.44 0.000000 ---
35301.00 1372.23 0.000000 ---
35201.00 1372.01 0.000000 ---
35101.00 1371.80 0.000000 ---
35001.00 1371.59 0.000000 ---
34901.00 1371.37 0.000000 ---
34801.00 1371.16 0.000000 ---
34701.00 1370.94 0.000000 ---
34601.00 1370.73 0.000000 ---
34501.00 1370.52 0.000000 ---
34401.00 1370.30 0.000000 ---
34301.00 1370.09 0.000000 ---
34201.00 1369.87 0.000000 ---
34101.00 1369.66 0.000000 ---
34001.00 1369.44 0.000000 ---
33901.00 1369.23 0.000000 ---
33801.00 1369.01 0.000000 ---
33701.00 1368.80 0.000000 ---
33601.00 1368.58 0.000000 ---
33501.00 1368.37 0.000000 ---
33401.00 1368.15 0.000000 ---
33301.00 1367.93 0.000000 ---
33201.00 1367.72 0.000000 ---
33101.00 1367.50 0.000000 ---
33001.00 1367.29 0.000000 ---
32901.00 1367.07 0.000000 ---
32801.00 1366.85 0.000000 ---
32701.00 1366.64 0.000000 ---
32601.00 1366.42 0.000000 ---
32501.00 1366.20 0.000000 ---
32401.00 1365.98 0.000000 ---
32301.00 1365.77 0.000000 ---
32201.00 1365.55 0.000000 ---
32101.00 1365.33 0.000000 ---
32001.00 1365.11 0.000000 ---
31901.00 1364.89 0.000000 ---
31801.00 1364.68 0.000000 ---
31701.00 1364.46 0.000000 ---
31601.00 1364.24 0.000000 ---
31501.00 1364.02 0.000000 ---
31401.00 1363.80 0.000000 ---
31301.00 1363.58 0.000000 ---
31201.00 1363.36 0.000000 ---
31101.00 1363.14 0.000000 ---
31001.00 1362.92 0.000000 ---
30901.00 1362.70 0.000000 ---
30801.00 1362.48 0.000000 ---
30701.00 1362.26 0.000000 ---
30601.00 1362.04 0.000000 ---
30501.00 1361.82 0.000000 ---
30401.00 1361.59 0.000000 ---
30301.00 1361.37 0.000000 ---
30201.00 1361.15 0.000000 ---
30101.00 1360.93 0.000000 ---
30001.00 1360.71 0.000000 ---
29901.00 1360.48 0.000000 ---
29801.00 1360.26 0.000000 ---
29701.00 1360.04 0.000000 ---
29601.00 1359.81 0.000000 ---
29501.00 1359.59 0.000000 ---
29401.00 1359.36 0.000000 ---
29301.00 1359.14 0.000000 ---
29201.00 1358.92 0.000000 ---
29101.00 1358.69 0.000000 ---
29001.00 1358.46 0.000000 ---
28901.00 1358.24 0.000000 ---
28801.00 1358.01 0.000000 ---
28701.00 1357.79 0.000000 ---
28601.00 1357.56 0.000000 ---
28501.00 1357.33 0.000000 ---
28401.00 1357.10 0.000000 ---
28301.00 1356.88 0.000000 ---
28201.00 1356.65 0.000000 ---
28101.00 1356.42 0.000000 ---
28001.00 1356.19 0.000000 ---
27901.00 1355.96 0.000000 ---
27801.00 1355.73 0.000000 ---
27701.00 1355.50 0.000000 ---
27601.00 1355.27 0.000000 ---
27501.00 1355.04 0.000000 ---
27401.00 1354.81 0.000000 ---
27301.00 1354.58 0.000000 ---
27201.00 1354.34 0.000000 ---
27101.00 1354.11 0.000000 ---
27001.00 1353.88 0.000000 ---
26901.00 1353.65 0.000000 ---
26801.00 1353.41 0.000000 ---
26701.00 1353.18 0.000000 ---
26601.00 1352.94 0.000000 ---
26501.00 1352.71 0.000000 ---
26401.00 1352.47 0.000000 ---
26301.00 1352.23 0.000000 ---
26201.00 1352.00 0.000000 ---
26101.00 1351.76 0.000000 ---
26001.00 1351.52 0.000000 ---
25901.00 1351.28 0.000000 ---
25801.00 1351.04 0.000000 ---
25701.00 1350.80 0.000000 ---
25601.00 1350.56 0.000000 ---
25501.00 1350.32 0.000000 ---
25401.00 1350.08 0.000000 ---
25301.00 1349.83 0.000000 ---
25201.00 1349.59 0.000000 ---
25101.00 1349.35 0.000000 ---
25001.00 1349.10 0.000000 ---
24901.00 1348.86 0.000000 ---
24801.00 1348.61 0.000000 ---
24701.00 1348.36 0.000000 ---
24601.00 1348.12 0.000000 ---
24501.00 1347.87 0.000000 ---
24401.00 1347.62 0.000000 ---
24301.00 1347.37 0.000000 ---
24201.00 1347.12 0.000000 ---
24101.00 1346.86 0.000000 ---
24001.00 1346.61 0.000000 ---
23901.00 1346.36 0.000000 ---
23801.00 1346.10 0.000000 ---
23701.00 1345.85 0.000000 ---
23601.00 1345.59 0.000000 ---
23501.00 1345.33 0.000000 ---
23401.00 1345.07 0.000000 ---
23301.00 1344.81 0.000000 ---
23201.00 1344.55 0.000000 ---
23101.00 1344.29 0.000000 ---
23001.00 1344.03 0.000000 ---
22901.00 1343.76 0.000000 ---
22801.00 1343.50 0.000000 ---
22701.00 1343.23 0.000000 ---
22601.00 1342.96 0.000000 ---
22501.00 1342.69 0.000000 ---
22401.00 1342.42 0.000000 ---
22301.00 1342.15 0.000000 ---
22201.00 1341.87 0.000000 ---
22101.00 1341.60 0.000000 ---
22001.00 1341.32 0.000000 ---
21901.00 1341.04 0.000000 ---
21801.00 1340.76 0.000000 ---
21701.00 1340.48 0.000000 ---
21601.00 1340.19 0.000000 ---
21501.00 1339.90 0.000000 ---
21401.00 1339.62 0.000000 ---
21301.00 1339.32 0.000000 ---
21201.00 1339.03 0.000000 ---
21101.00 1338.74 0.000000 ---
21001.00 1338.44 0.000000 ---
20901.00 1338.14 0.000000 ---
20801.00 1337.84 0.000000 ---
20701.00 1337.53 0.000000 ---
20601.00 1337.22 0.000000 ---
20501.00 1336.91 0.000000 ---
20401.00 1336.60 0.000000 ---
20301.00 1336.28 0.000000 ---
20201.00 1335.96 0.000000 ---
20101.00 1335.64 0.000000 ---
20001.00 1335.31 0.000000 ---
19901.00 1335.08 0.000000 ---
19801.00 1334.88 0.000000 ---
19701.00 1334.69 0.000000 ---
19601.00 1334.49 0.000000 ---
19501.00 1334.30 0.000000 ---
19401.00 1334.10 0.000000 ---
19301.00 1333.91 0.000000 ---
19201.00 1333.72 0.000000 ---
19101.00 1333.52 0.000000 ---
19001.00 1333.33 0.000000 ---
18901.00 1333.13 0.000000 ---
18801.00 1332.94 0.000000 ---
18701.00 1332.74 0.000000 ---
18601.00 1332.55 0.000000 ---
18501.00 1332.35 0.000000 ---
18401.00 1332.16 0.000000 ---
18301.00 1331.96 0.000000 ---
18201.00 1331.77 0.000000 ---
18101.00 1331.58 0.000000 ---
18001.00 1331.38 0.000000 ---
17901.00 1331.19 0.000000 ---
17801.00 1330.99 0.000000 ---
17701.00 1330.80 0.000000 ---
17601.00 1330.60 0.000000 ---
17501.00 1330.41 0.000000 ---
17401.00 1330.21 0.000000 ---
17301.00 1330.02 0.000000 ---
17201.00 1329.82 0.000000 ---
17101.00 1329.63 0.000000 ---
17001.00 1329.43 0.000000 ---
16901.00 1329.24 0.000000 ---
16801.00 1329.04 0.000000 ---
16701.00 1328.85 0.000000 ---
16601.00 1328.65 0.000000 ---
16501.00 1328.46 0.000000 ---
16401.00 1328.26 0.000000 ---
16301.00 1328.07 0.000000 ---
16201.00 1327.87 0.000000 ---
16101.00 1327.68 0.000000 ---
16001.00 1327.48 0.000000 ---
15901.00 1327.29 0.000000 ---
15801.00 1327.09 0.000000 ---
15701.00 1326.90 0.000000 ---
15601.00 1326.70 0.000000 ---
15501.00 1326.50 0.000000 ---
15401.00 1326.31 0.000000 ---
15301.00 1326.11 0.000000 ---
15201.00 1325.92 0.000000 ---
15101.00 1325.60 0.029418 49.7706 0.746227 17.3228 0.115601 0.295876 5.85521 0.0223079 10.4856 0.0127259 4.86605 10.507
15001.00 1325.26 0.065567 49.8218 0.745316 17.3367 0.117026 0.291966 5.84502 0.0220494 10.4812 0.012574 4.91639 10.4099
14901.00 1324.92 0.102295 49.8726 0.744433 17.3504 0.118483 0.288076 5.83501 0.0217924 10.477 0.0124231 4.9674 10.3124
14801.00 1324.58 0.139622 49.9229 0.743577 17.3637 0.119974 0.284207 5.82518 0.021537 10.473 0.0122731 5.01911 10.2145
14701.00 1324.23 0.177569 49.9729 0.742748 17.3768 0.121498 0.280358 5.81553 0.021283 10.4692 0.0121241 5.07151 10.116
14601.00 1323.89 0.216160 50.0225 0.741947 17.3896 0.123058 0.276531 5.80605 0.0210304 10.4656 0.011976 5.12462 10.0171
14501.00 1323.54 0.255418 50.0716 0.741173 17.4021 0.124654 0.272726 5.79676 0.0207794 10.4622 0.0118288 5.17846 9.91778
14401.00 1323.19 0.295366 50.1202 0.740427 17.4143 0.126287 0.268943 5.78765 0.0205299 10.459 0.0116825 5.23301 9.81798
14301.00 1322.84 0.336031 50.1685 0.739709 17.4262 0.127958 0.265183 5.77872 0.0202819 10.4559 0.0115372 5.28831 9.71773
14201.00 1322.48 0.377440 50.2162 0.739019 17.4378 0.129669 0.261445 5.76997 0.0200354 10.4531 0.0113929 5.34435 9.61704
14101.00 1322.13 0.419620 50.2634 0.738356 17.449 0.131421 0.257731 5.76141 0.0197904 10.4505 0.0112494 5.40115 9.51591
14001.00 1321.77 0.462601 50.3102 0.737722 17.46 0.133214 0.254041 5.75303 0.0195469 10.4481 0.0111069 5.45872 9.41434
13901.00 1321.41 0.506413 50.3564 0.737115 17.4707 0.135051 0.250374 5.74484 0.0193049 10.4458 0.0109654 5.51706 9.31234
13801.00 1321.04 0.551089 50.4022 0.736536 17.481 0.136932 0.246733 5.73684 0.0190644 10.4438 0.0108247 5.57619 9.20991
13701.00 1320.68 0.596662 50.4474 0.735984 17.491 0.138858 0.243117 5.72902 0.0188254 10.442 0.0106851 5.63611 9.10707
13601.00 1320.31 0.643168 50.492 0.73546 17.5007 0.140832 0.239526 5.72139 0.018588 10.4403 0.0105463 5.69683 9.0038
13501.00 1319.94 0.690643 50.5361 0.734963 17.5101 0.142854 0.235961 5.71394 0.0183521 10.4388 0.0104085 5.75836 8.90013
13401.00 1319.57 0.739126 50.5797 0.734493 17.5191 0.144926 0.232423 5.70668 0.0181177 10.4375 0.0102717 5.82072 8.79606
13301.00 1319.19 0.788657 50.6226 0.73405 17.5279 0.147049 0.228912 5.6996 0.0178848 10.4364 0.0101358 5.8839 8.6916
13201.00 1318.81 0.839279 50.665 0.733633 17.5362 0.149224 0.225428 5.69271 0.0176535 10.4354 0.0100008 5.94791 8.58675
13101.00 1318.43 0.891037 50.7068 0.733242 17.5443 0.151454 0.221972 5.68599 0.0174237 10.4347 0.00986678 6.01276 8.48153
13001.00 1318.04 0.943977 50.748 0.732877 17.552 0.15374 0.218544 5.67946 0.0171954 10.4341 0.00973369 6.07846 8.37594
12901.00 1317.65 0.998147 50.7886 0.732537 17.5594 0.156083 0.215146 5.67311 0.0169687 10.4336 0.00960155 6.14502 8.27
12801.00 1317.26 1.053600 50.8285 0.732221 17.5664 0.158484 0.211777 5.66693 0.0167435 10.4333 0.00947035 6.21243 8.16372
12701.00 1316.86 1.056966 50.8677 0.731942 17.5731 0.160949 0.208425 5.66102 0.0165198 10.4333 0.00934012 6.28084 8.05691
12601.00 1316.47 1.057026 50.9061 0.731701 17.5794 0.163479 0.20509 5.6554 0.0162977 10.4335 0.00921086 6.35028 7.94954
12501.00 1316.07 1.057099 50.9437 0.731498 17.5854 0.166076 0.201772 5.65006 0.0160772 10.434 0.00908257 6.42076 7.84163
12401.00 1315.67 1.057186 50.9804 0.731334 17.591 0.168743 0.198471 5.64501 0.0158582 10.4348 0.00895524 6.49229 7.73318
12301.00 1315.27 1.057287 51.0163 0.73121 17.5962 0.171482 0.195189 5.64025 0.0156408 10.4358 0.00882889 6.56489 7.62419
12201.00 1314.86 1.057403 51.0513 0.731125 17.601 0.174295 0.191925 5.63579 0.015425 10.4371 0.00870349 6.63859 7.51467
12101.00 1314.46 1.057535 51.0855 0.73108 17.6055 0.177185 0.188679 5.63163 0.0152107 10.4387 0.00857907 6.71338 7.40461
12001.00 1314.05 1.057683 51.1187 0.731076 17.6096 0.180154 0.185453 5.62777 0.0149979 10.4405 0.0084556 6.7893 7.29402
11901.00 1313.64 1.057848 51.1509 0.731112 17.6133 0.183204 0.182247 5.62421 0.0147868 10.4426 0.00833309 6.86635 7.18291
11801.00 1313.22 1.058032 51.1822 0.73119 17.6166 0.186339 0.179061 5.62096 0.0145771 10.4449 0.00821155 6.94455 7.07128
11701.00 1312.81 1.058235 51.2126 0.731309 17.6196 0.189561 0.175895 5.61801 0.014369 10.4475 0.00809096 7.02392 6.95914
11601.00 1312.39 1.058458 51.242 0.73147 17.6221 0.192872 0.172751 5.61537 0.0141625 10.4504 0.00797133 7.10447 6.8465
11501.00 1311.97 1.058703 51.2703 0.731672 17.6242 0.196276 0.169628 5.61304 0.0139576 10.4535 0.00785266 7.1862 6.73336
11401.00 1311.55 1.058970 51.2976 0.731916 17.626 0.199775 0.166527 5.61102 0.0137541 10.4568 0.00773494 7.26915 6.61973
11301.00 1311.12 1.059260 51.3239 0.732203 17.6273 0.203373 0.163449 5.60932 0.0135523 10.4603 0.00761817 7.35331 6.50563
11201.00 1310.69 1.059575 51.3492 0.732531 17.6282 0.207071 0.160394 5.60792 0.013352 10.4641 0.00750236 7.4387 6.39106
11101.00 1310.26 1.059917 51.3733 0.732901 17.6287 0.210875 0.157363 5.60684 0.0131532 10.4681 0.00738749 7.52534 6.27603
11001.00 1309.83 1.060285 51.3964 0.733312 17.6288 0.214785 0.154356 5.60606 0.012956 10.4723 0.00727358 7.61322 6.16057
10901.00 1309.39 1.060683 51.4184 0.733764 17.6284 0.218807 0.151374 5.6056 0.0127603 10.4767 0.00716061 7.70237 6.04468
10801.00 1308.95 1.061111 51.4393 0.734258 17.6276 0.222942 0.148418 5.60544 0.0125662 10.4812 0.00704858 7.79279 5.92838
10701.00 1308.51 1.061572 51.4591 0.734791 17.6264 0.227194 0.145487 5.60558 0.0123736 10.486 0.0069375 7.88448 5.81168
10601.00 1308.06 1.062066 51.4777 0.735364 17.6248 0.231566 0.142584 5.60603 0.0121826 10.4908 0.00682737 7.97745 5.69461
10501.00 1307.61 1.062597 51.4952 0.735975 17.6228 0.236062 0.139708 5.60676 0.0119931 10.4959 0.00671818 8.07171 5.57718
10401.00 1307.15 1.063165 51.5116 0.736625 17.6203 0.240684 0.136859 5.60779 0.0118052 10.501 0.00660993 8.16725 5.45942
10301.00 1306.69 1.063774 51.5268 0.73731 17.6174 0.245436 0.13404 5.60911 0.0116188 10.5063 0.00650262 8.26408 5.34135
10201.00 1306.23 1.064425 51.5409 0.73803 17.6141 0.25032 0.13125 5.6107 0.011434 10.5117 0.00639626 8.3622 5.223
10101.00 1305.76 1.065121 51.5539 0.738784 17.6103 0.255341 0.128491 5.61255 0.0112507 10.5171 0.00629083 8.4616 5.10439
10001.00 1305.29 1.065864 51.5657 0.73957 17.6062 0.2605 0.125762 5.61467 0.011069 10.5226 0.00618635 8.56227 4.98555
9901.00 1304.81 1.066657 51.5764 0.740384 17.6015 0.265801 0.123065 5.61704 0.0108888 10.5281 0.00608281 8.66422 4.86651
9801.00 1304.33 1.067503 51.586 0.741226 17.5965 0.271247 0.1204 5.61964 0.0107102 10.5336 0.00598021 8.76741 4.74731
9701.00 1303.84 1.068405 51.5944 0.742091 17.5911 0.276839 0.117769 5.62246 0.0105332 10.5391 0.00587856 8.87185 4.62798
9601.00 1303.35 1.069366 51.6018 0.742978 17.5852 0.282581 0.115172 5.6255 0.0103577 10.5445 0.00577785 8.97752 4.50856
9501.00 1302.85 1.070391 51.6081 0.743883 17.5789 0.288475 0.112609 5.62872 0.0101838 10.5499 0.00567809 9.08439 4.38909
9401.00 1302.35 1.071483 51.6134 0.744801 17.5723 0.294522 0.110083 5.63212 0.0100115 10.5552 0.00557927 9.19244 4.26961
9301.00 1301.84 1.072645 51.6177 0.745729 17.5652 0.300724 0.107593 5.63566 0.0098408 10.5603 0.0054814 9.30164 4.15017
9201.00 1301.32 1.073882 51.621 0.746662 17.5577 0.307083 0.10514 5.63934 0.00967166 10.5652 0.00538449 9.41197 4.03082
9101.00 1300.80 1.075199 51.6233 0.747595 17.5499 0.313599 0.102727 5.64313 0.00950412 10.57 0.00528853 9.52338 3.91161
9001.00 1300.27 1.076601 51.6248 0.748522 17.5416 0.320273 0.100352 5.647 0.00933819 10.5745 0.00519353 9.63583 3.79258
8901.00 1299.73 1.078093 51.6254 0.749436 17.533 0.327106 0.0980176 5.65091 0.00917388 10.5787 0.0050995 9.74929 3.6738
8801.00 1299.18 1.079681 51.6252 0.750331 17.5241 0.334095 0.0957245 5.65486 0.0090112 10.5826 0.00500644 9.86369 3.55533
8701.00 1298.63 1.081370 51.6243 0.7512 17.5148 0.341242 0.0934737 5.65878 0.00885015 10.5862 0.00491434 9.979 3.43723
8601.00 1298.07 1.083167 51.6228 0.752034 17.5052 0.348543 0.091266 5.66267 0.00869076 10.5893 0.00482323 10.0951 3.31957
8501.00 1297.49 1.085079 51.6207 0.752823 17.4952 0.355996 0.0891025 5.66647 0.00853304 10.592 0.00473311 10.212 3.2024
8401.00 1296.91 1.087114 51.618 0.753559 17.4849 0.363599 0.0869842 5.67014 0.008377 10.5942 0.00464397 10.3296 3.08582
8301.00 1296.32 1.089279 51.615 0.754231 17.4744 0.371348 0.0849121 5.67364 0.00822266 10.5959 0.00455584 10.4479 2.96988
8201.00 1295.72 1.091582 51.6117 0.754826 17.4636 0.379237 0.0828873 5.67694 0.00807004 10.597 0.00446872 10.5666 2.85468
8101.00 1295.10 1.094033 51.6082 0.755333 17.4525 0.387262 0.0809108 5.67996 0.00791915 10.5974 0.00438261 10.6858 2.74028
8001.00 1294.48 1.096641 51.6047 0.755737 17.4412 0.395415 0.0789837 5.68267 0.00777002 10.5971 0.00429754 10.8054 2.62678
7901.00 1293.84 1.099416 51.6011 0.756026 17.4296 0.403689 0.077107 5.68501 0.00762267 10.5961 0.0042135 10.9252 2.51427
7801.00 1293.19 1.102369 51.5978 0.756182 17.4179 0.412075 0.0752819 5.68692 0.00747712 10.5943 0.00413051 11.0451 2.40283
7701.00 1292.53 1.105510 51.5948 0.756188 17.4059 0.420563 0.0735096 5.68834 0.00733341 10.5917 0.00404859 11.165 2.29257
7601.00 1291.85 1.108853 51.5924 0.756028 17.3938 0.429142 0.0717911 5.6892 0.00719155 10.5881 0.00396774 11.2848 2.18358
7501.00 1291.16 1.112408 51.5906 0.75568 17.3816 0.4378 0.0701277 5.68945 0.00705157 10.5836 0.00388799 11.4043 2.07597
7401.00 1290.45 1.116189 51.5896 0.755126 17.3691 0.446522 0.0685205 5.68899 0.00691351 10.5781 0.00380934 11.5234 1.96985
7301.00 1289.72 1.120210 51.5897 0.754342 17.3566 0.455294 0.0669709 5.68777 0.0067774 10.5715 0.00373181 11.642 1.86532
7201.00 1288.98 1.124482 51.5911 0.753306 17.344 0.464099 0.0654802 5.6857 0.00664328 10.5638 0.00365542 11.7598 1.7625
7101.00 1288.21 1.129020 51.5939 0.751992 17.3313 0.472919 0.0640498 5.68271 0.00651119 10.5549 0.0035802 11.8767 1.66151
7001.00 1287.43 1.133837 51.5984 0.750375 17.3185 0.481735 0.062681 5.67871 0.00638116 10.5448 0.00350615 11.9925 1.56248
6901.00 1286.63 1.138944 51.6049 0.748427 17.3056 0.490525 0.0613754 5.67361 0.00625324 10.5334 0.0034333 12.107 1.46553
6801.00 1285.80 1.144354 51.6136 0.74612 17.2927 0.499268 0.0601345 5.66732 0.00612747 10.5206 0.00336168 12.22 1.37079
6701.00 1284.95 1.150075 51.6248 0.743423 17.2797 0.50794 0.0589601 5.65976 0.00600391 10.5065 0.00329131 12.3312 1.27841
6601.00 1284.08 1.156115 51.6388 0.740307 17.2666 0.516516 0.0578539 5.65083 0.00588262 10.4909 0.00322222 12.4405 1.18852
6501.00 1283.17 1.162477 51.6559 0.73674 17.2535 0.524971 0.0568177 5.64044 0.00576364 10.4739 0.00315444 12.5476 1.10127
6401.00 1282.25 1.169159 51.6764 0.73269 17.2403 0.533276 0.0558536 5.6285 0.00564704 10.4553 0.00308799 12.6522 1.0168
6301.00 1281.29 1.176153 51.7006 0.728125 17.227 0.541405 0.0549635 5.6149 0.00553289 10.4351 0.00302292 12.7541 0.935265
