Title: Depleted MORB Mantle of Workmann & Hart 2005

System Thermodynamic Data:
Pressure Temperature mass F phi S H V Cp dVdP*10^6 dVdT*10^6 fO2(absolute) fO2(absolute) rhol rhos viscosity aH2O chisqr
44001.00 1390.49 100.138995 0.0000000000000000 0.000000 252.327818 -1152936.129047 30.171689 124.815969 -19.898116 1440.791141 -6.000 -6.000 0.000000 3.318972 0.000 0 0.000
43901.00 1390.29 100.138995 0.0000000000000000 0.000000 252.327818 -1153237.855608 30.173624 124.822654 -19.905195 1440.722606 -6.004 -6.004 0.000000 3.318759 0.000 0 0.000
43801.00 1390.08 100.138995 0.0000000000000000 0.000000 252.327818 -1153539.601536 30.175562 124.829340 -19.912279 1440.654235 -6.009 -6.009 0.000000 3.318546 0.000 0 0.000
43701.00 1389.87 100.138995 0.0000000000000000 0.000000 252.327818 -1153841.366852 30.177502 124.836026 -19.919369 1440.586029 -6.014 -6.014 0.000000 3.318333 0.000 0 0.000
43601.00 1389.66 100.138995 0.0000000000000000 0.000000 252.327818 -1154143.151582 30.179444 124.842713 -19.926463 1440.517988 -6.019 -6.019 0.000000 3.318119 0.000 0 0.000
43501.00 1389.45 100.138995 0.0000000000000000 0.000000 252.327818 -1154444.955749 30.181389 124.849400 -19.933563 1440.450116 -6.024 -6.024 0.000000 3.317905 0.000 0 0.000
43401.00 1389.25 100.138995 0.0000000000000000 0.000000 252.327818 -1154746.779377 30.183337 124.856088 -19.940669 1440.382412 -6.028 -6.028 0.000000 3.317691 0.000 0 0.000
43301.00 1389.04 100.138995 0.0000000000000000 0.000000 252.327818 -1155048.622491 30.185286 124.862776 -19.947780 1440.314879 -6.033 -6.033 0.000000 3.317477 0.000 0 0.000
43201.00 1388.83 100.138995 0.0000000000000000 0.000000 252.327818 -1155350.485114 30.187239 124.869465 -19.954896 1440.247517 -6.038 -6.038 0.000000 3.317263 0.000 0 0.000
43101.00 1388.62 100.138995 0.0000000000000000 0.000000 252.327818 -1155652.367271 30.189193 124.876154 -19.962018 1440.180329 -6.043 -6.043 0.000000 3.317048 0.000 0 0.000
43001.00 1388.41 100.138995 0.0000000000000000 0.000000 252.327818 -1155954.268987 30.191150 124.882844 -19.969145 1440.113317 -6.048 -6.048 0.000000 3.316833 0.000 0 0.000
42901.00 1388.21 100.138995 0.0000000000000000 0.000000 252.327818 -1156256.190287 30.193110 124.889534 -19.976278 1440.046480 -6.053 -6.053 0.000000 3.316617 0.000 0 0.000
42801.00 1388.00 100.138995 0.0000000000000000 0.000000 252.327818 -1156558.131195 30.195072 124.896226 -19.983417 1439.979822 -6.058 -6.058 0.000000 3.316402 0.000 0 0.000
42701.00 1387.79 100.138995 0.0000000000000000 0.000000 252.327818 -1156860.091738 30.197037 124.902918 -19.990562 1439.913344 -6.063 -6.063 0.000000 3.316186 0.000 0 0.000
42601.00 1387.58 100.138995 0.0000000000000000 0.000000 252.327818 -1157162.071939 30.199004 124.909610 -19.997712 1439.847046 -6.067 -6.067 0.000000 3.315970 0.000 0 0.000
42501.00 1387.37 100.138995 0.0000000000000000 0.000000 252.327818 -1157464.071826 30.200974 124.916304 -20.004868 1439.780932 -6.072 -6.072 0.000000 3.315754 0.000 0 0.000
42401.00 1387.16 100.138995 0.0000000000000000 0.000000 252.327818 -1157766.091422 30.202946 124.922998 -20.012030 1439.715002 -6.077 -6.077 0.000000 3.315537 0.000 0 0.000
42301.00 1386.96 100.138995 0.0000000000000000 0.000000 252.327818 -1158068.130756 30.204921 124.929693 -20.019198 1439.649259 -6.082 -6.082 0.000000 3.315321 0.000 0 0.000
42201.00 1386.75 100.138995 0.0000000000000000 0.000000 252.327818 -1158370.189851 30.206899 124.936389 -20.026372 1439.583704 -6.087 -6.087 0.000000 3.315103 0.000 0 0.000
42101.00 1386.54 100.138995 0.0000000000000000 0.000000 252.327818 -1158672.268736 30.208879 124.943085 -20.033552 1439.518338 -6.092 -6.092 0.000000 3.314886 0.000 0 0.000
42001.00 1386.33 100.138995 0.0000000000000000 0.000000 252.327818 -1158974.367436 30.210862 124.949783 -20.040738 1439.453164 -6.097 -6.097 0.000000 3.314669 0.000 0 0.000
41901.00 1386.12 100.138995 0.0000000000000000 0.000000 252.327818 -1159276.485978 30.212847 124.956481 -20.047931 1439.388184 -6.102 -6.102 0.000000 3.314451 0.000 0 0.000
41801.00 1385.91 100.138995 0.0000000000000000 0.000000 252.327818 -1159578.624388 30.214835 124.963181 -20.055129 1439.323398 -6.107 -6.107 0.000000 3.314233 0.000 0 0.000
41701.00 1385.71 100.138995 0.0000000000000000 0.000000 252.327818 -1159880.782695 30.216826 124.969881 -20.062334 1439.258809 -6.113 -6.113 0.000000 3.314014 0.000 0 0.000
41601.00 1385.50 100.138995 0.0000000000000000 0.000000 252.327818 -1160182.960925 30.218820 124.976582 -20.069545 1439.194419 -6.118 -6.118 0.000000 3.313796 0.000 0 0.000
41501.00 1385.29 100.138995 0.0000000000000000 0.000000 252.327818 -1160485.159105 30.220817 124.983285 -20.076763 1439.130230 -6.123 -6.123 0.000000 3.313577 0.000 0 0.000
41401.00 1385.08 100.138995 0.0000000000000000 0.000000 252.327818 -1160787.377264 30.222816 124.989988 -20.083987 1439.066243 -6.128 -6.128 0.000000 3.313358 0.000 0 0.000
41301.00 1384.87 100.138995 0.0000000000000000 0.000000 252.327818 -1161089.615429 30.224818 124.996693 -20.091218 1439.002461 -6.133 -6.133 0.000000 3.313138 0.000 0 0.000
41201.00 1384.66 100.138995 0.0000000000000000 0.000000 252.327818 -1161391.873629 30.226823 125.003398 -20.098456 1438.938885 -6.138 -6.138 0.000000 3.312918 0.000 0 0.000
41101.00 1384.45 100.138995 0.0000000000000000 0.000000 252.327818 -1161694.151891 30.228830 125.010105 -20.105700 1438.875518 -6.143 -6.143 0.000000 3.312698 0.000 0 0.000
41001.00 1384.24 100.138995 0.0000000000000000 0.000000 252.327818 -1161996.450245 30.230841 125.016813 -20.112951 1438.812361 -6.148 -6.148 0.000000 3.312478 0.000 0 0.000
40901.00 1384.03 100.138995 0.0000000000000000 0.000000 252.327818 -1162298.768718 30.232854 125.023522 -20.120208 1438.749417 -6.154 -6.154 0.000000 3.312257 0.000 0 0.000
40801.00 1383.83 100.138995 0.0000000000000000 0.000000 252.327818 -1162601.107341 30.234871 125.030233 -20.127473 1438.686688 -6.159 -6.159 0.000000 3.312036 0.000 0 0.000
40701.00 1383.62 100.138995 0.0000000000000000 0.000000 252.327818 -1162903.466142 30.236890 125.036945 -20.134745 1438.624175 -6.164 -6.164 0.000000 3.311815 0.000 0 0.000
40601.00 1383.41 100.138995 0.0000000000000000 0.000000 252.327818 -1163205.845151 30.238912 125.043658 -20.142023 1438.561882 -6.169 -6.169 0.000000 3.311594 0.000 0 0.000
40501.00 1383.20 100.138995 0.0000000000000000 0.000000 252.327818 -1163508.244398 30.240938 125.050373 -20.149309 1438.499810 -6.175 -6.175 0.000000 3.311372 0.000 0 0.000
40401.00 1382.99 100.138995 0.0000000000000000 0.000000 252.327818 -1163810.663912 30.242966 125.057088 -20.156602 1438.437961 -6.180 -6.180 0.000000 3.311150 0.000 0 0.000
40301.00 1382.78 100.138995 0.0000000000000000 0.000000 252.327818 -1164113.103724 30.244997 125.063806 -20.163902 1438.376337 -6.185 -6.185 0.000000 3.310928 0.000 0 0.000
40201.00 1382.57 100.138995 0.0000000000000000 0.000000 252.327818 -1164415.563864 30.247031 125.070525 -20.171209 1438.314942 -6.190 -6.190 0.000000 3.310705 0.000 0 0.000
40101.00 1382.36 100.138995 0.0000000000000000 0.000000 252.327818 -1164718.044363 30.249069 125.077245 -20.178524 1438.253777 -6.196 -6.196 0.000000 3.310482 0.000 0 0.000
40001.00 1382.15 100.138995 0.0000000000000000 0.000000 252.327818 -1165020.545252 30.251109 125.083967 -20.185846 1438.192845 -6.201 -6.201 0.000000 3.310259 0.000 0 0.000
39901.00 1381.94 100.138995 0.0000000000000000 0.000000 252.327818 -1165323.066562 30.253153 125.090691 -20.193176 1438.132147 -6.206 -6.206 0.000000 3.310035 0.000 0 0.000
39801.00 1381.73 100.138995 0.0000000000000000 0.000000 252.327818 -1165625.608325 30.255200 125.097416 -20.200514 1438.071688 -6.212 -6.212 0.000000 3.309811 0.000 0 0.000
39701.00 1381.52 100.138995 0.0000000000000000 0.000000 252.327818 -1165928.170572 30.257250 125.104143 -20.207859 1438.011468 -6.217 -6.217 0.000000 3.309587 0.000 0 0.000
39601.00 1381.31 100.138995 0.0000000000000000 0.000000 252.327818 -1166230.753336 30.259303 125.110872 -20.215212 1437.951491 -6.223 -6.223 0.000000 3.309362 0.000 0 0.000
39501.00 1381.10 100.138995 0.0000000000000000 0.000000 252.327818 -1166533.356648 30.261360 125.117602 -20.222573 1437.891758 -6.228 -6.228 0.000000 3.309137 0.000 0 0.000
39401.00 1380.89 100.138995 0.0000000000000000 0.000000 252.327818 -1166835.980542 30.263420 125.124334 -20.229942 1437.832274 -6.233 -6.233 0.000000 3.308912 0.000 0 0.000
39301.00 1380.68 100.138995 0.0000000000000000 0.000000 252.327818 -1167138.625050 30.265483 125.131068 -20.237319 1437.773040 -6.239 -6.239 0.000000 3.308687 0.000 0 0.000
39201.00 1380.47 100.138995 0.0000000000000000 0.000000 252.327818 -1167441.290206 30.267549 125.137804 -20.244704 1437.714059 -6.244 -6.244 0.000000 3.308461 0.000 0 0.000
39101.00 1380.26 100.138995 0.0000000000000000 0.000000 252.327818 -1167743.976042 30.269619 125.144542 -20.252097 1437.655333 -6.250 -6.250 0.000000 3.308234 0.000 0 0.000
39001.00 1380.05 100.138995 0.0000000000000000 0.000000 252.327818 -1168046.682594 30.271692 125.151282 -20.259498 1437.596866 -6.255 -6.255 0.000000 3.308008 0.000 0 0.000
38901.00 1379.84 100.138995 0.0000000000000000 0.000000 252.327818 -1168349.409894 30.273769 125.158024 -20.266908 1437.538661 -6.261 -6.261 0.000000 3.307781 0.000 0 0.000
38801.00 1379.63 100.138995 0.0000000000000000 0.000000 252.327818 -1168652.157977 30.275849 125.164768 -20.274327 1437.480720 -6.266 -6.266 0.000000 3.307554 0.000 0 0.000
38701.00 1379.42 100.138995 0.0000000000000000 0.000000 252.327818 -1168954.926879 30.277932 125.171515 -20.281754 1437.423045 -6.272 -6.272 0.000000 3.307326 0.000 0 0.000
38601.00 1379.21 100.138995 0.0000000000000000 0.000000 252.327818 -1169257.716633 30.280019 125.178263 -20.289189 1437.365641 -6.277 -6.277 0.000000 3.307098 0.000 0 0.000
38501.00 1379.00 100.138995 0.0000000000000000 0.000000 252.327818 -1169560.527276 30.282110 125.185014 -20.296634 1437.308511 -6.283 -6.283 0.000000 3.306870 0.000 0 0.000
38401.00 1378.79 100.138995 0.0000000000000000 0.000000 252.327818 -1169863.358842 30.284204 125.191767 -20.304087 1437.251656 -6.289 -6.289 0.000000 3.306641 0.000 0 0.000
38301.00 1378.58 100.138995 0.0000000000000000 0.000000 252.327818 -1170166.211369 30.286302 125.198522 -20.311550 1437.195081 -6.294 -6.294 0.000000 3.306412 0.000 0 0.000
38201.00 1378.37 100.138995 0.0000000000000000 0.000000 252.327818 -1170469.084893 30.288403 125.205280 -20.319021 1437.138788 -6.300 -6.300 0.000000 3.306183 0.000 0 0.000
38101.00 1378.16 100.138995 0.0000000000000000 0.000000 252.327818 -1170771.979449 30.290509 125.212040 -20.326501 1437.082781 -6.306 -6.306 0.000000 3.305953 0.000 0 0.000
38001.00 1377.95 100.138995 0.0000000000000000 0.000000 252.327818 -1171074.895076 30.292617 125.218803 -20.333991 1437.027063 -6.311 -6.311 0.000000 3.305723 0.000 0 0.000
37901.00 1377.74 100.138995 0.0000000000000000 0.000000 252.327818 -1171377.831810 30.294730 125.225568 -20.341490 1436.971638 -6.317 -6.317 0.000000 3.305492 0.000 0 0.000
37801.00 1377.53 100.138995 0.0000000000000000 0.000000 252.327818 -1171680.789691 30.296847 125.232336 -20.348999 1436.916508 -6.323 -6.323 0.000000 3.305261 0.000 0 0.000
37701.00 1377.32 100.138995 0.0000000000000000 0.000000 252.327818 -1171983.768754 30.298967 125.239107 -20.356517 1436.861677 -6.328 -6.328 0.000000 3.305030 0.000 0 0.000
37601.00 1377.10 100.138995 0.0000000000000000 0.000000 252.327818 -1172286.769041 30.301091 125.245881 -20.364045 1436.807150 -6.334 -6.334 0.000000 3.304798 0.000 0 0.000
37501.00 1376.89 100.138995 0.0000000000000000 0.000000 252.327818 -1172589.790588 30.303219 125.252657 -20.371583 1436.752929 -6.340 -6.340 0.000000 3.304566 0.000 0 0.000
37401.00 1376.68 100.138995 0.0000000000000000 0.000000 252.327818 -1172892.833436 30.305351 125.259436 -20.379131 1436.699017 -6.346 -6.346 0.000000 3.304334 0.000 0 0.000
37301.00 1376.47 100.138995 0.0000000000000000 0.000000 252.327818 -1173195.897625 30.307487 125.266218 -20.386689 1436.645420 -6.352 -6.352 0.000000 3.304101 0.000 0 0.000
37201.00 1376.26 100.138995 0.0000000000000000 0.000000 252.327818 -1173498.983194 30.309627 125.273003 -20.394257 1436.592140 -6.357 -6.357 0.000000 3.303868 0.000 0 0.000
37101.00 1376.05 100.138995 0.0000000000000000 0.000000 252.327818 -1173802.090184 30.311771 125.279791 -20.401835 1436.539181 -6.363 -6.363 0.000000 3.303634 0.000 0 0.000
37001.00 1375.84 100.138995 0.0000000000000000 0.000000 252.327818 -1174105.218636 30.313920 125.286583 -20.409424 1436.486548 -6.369 -6.369 0.000000 3.303400 0.000 0 0.000
36901.00 1375.63 100.138995 0.0000000000000000 0.000000 252.327818 -1174408.368592 30.316072 125.293377 -20.417023 1436.434244 -6.375 -6.375 0.000000 3.303165 0.000 0 0.000
36801.00 1375.41 100.138995 0.0000000000000000 0.000000 252.327818 -1174711.540093 30.318229 125.300175 -20.424633 1436.382274 -6.381 -6.381 0.000000 3.302930 0.000 0 0.000
36701.00 1375.20 100.138995 0.0000000000000000 0.000000 252.327818 -1175014.733182 30.320390 125.306976 -20.432253 1436.330641 -6.387 -6.387 0.000000 3.302695 0.000 0 0.000
36601.00 1374.99 100.138995 0.0000000000000000 0.000000 252.327818 -1175317.947901 30.322555 125.313781 -20.439885 1436.279349 -6.393 -6.393 0.000000 3.302459 0.000 0 0.000
36501.00 1374.78 100.138995 0.0000000000000000 0.000000 252.327818 -1175621.184294 30.324724 125.320589 -20.447527 1436.228404 -6.399 -6.399 0.000000 3.302223 0.000 0 0.000
36401.00 1374.57 100.138995 0.0000000000000000 0.000000 252.327818 -1175924.442405 30.326898 125.327401 -20.455181 1436.177810 -6.405 -6.405 0.000000 3.301986 0.000 0 0.000
36301.00 1374.35 100.138995 0.0000000000000000 0.000000 252.327818 -1176227.722277 30.329077 125.334216 -20.462846 1436.127570 -6.411 -6.411 0.000000 3.301749 0.000 0 0.000
36201.00 1374.14 100.138995 0.0000000000000000 0.000000 252.327818 -1176531.023955 30.331260 125.341035 -20.470523 1436.077690 -6.417 -6.417 0.000000 3.301511 0.000 0 0.000
36101.00 1373.93 100.138995 0.0000000000000000 0.000000 252.327818 -1176834.347485 30.333447 125.347858 -20.478211 1436.028173 -6.423 -6.423 0.000000 3.301273 0.000 0 0.000
36001.00 1373.72 100.138995 0.0000000000000000 0.000000 252.327818 -1177137.692911 30.335639 125.354685 -20.485911 1435.979026 -6.429 -6.429 0.000000 3.301035 0.000 0 0.000
35901.00 1373.50 100.138995 0.0000000000000000 0.000000 252.327818 -1177441.060281 30.337836 125.361516 -20.493623 1435.930252 -6.435 -6.435 0.000000 3.300796 0.000 0 0.000
35801.00 1373.29 100.138995 0.0000000000000000 0.000000 252.327818 -1177744.449641 30.340037 125.368350 -20.501347 1435.881857 -6.441 -6.441 0.000000 3.300556 0.000 0 0.000
35701.00 1373.08 100.138995 0.0000000000000000 0.000000 252.327818 -1178047.861039 30.342243 125.375189 -20.509083 1435.833846 -6.448 -6.448 0.000000 3.300316 0.000 0 0.000
35601.00 1372.87 100.138995 0.0000000000000000 0.000000 252.327818 -1178351.294521 30.344454 125.382033 -20.516831 1435.786223 -6.454 -6.454 0.000000 3.300076 0.000 0 0.000
35501.00 1372.65 100.138995 0.0000000000000000 0.000000 252.327818 -1178654.750137 30.346670 125.388880 -20.524592 1435.738994 -6.460 -6.460 0.000000 3.299835 0.000 0 0.000
35401.00 1372.44 100.138995 0.0000000000000000 0.000000 252.327818 -1178958.227934 30.348891 125.395732 -20.532366 1435.692164 -6.466 -6.466 0.000000 3.299593 0.000 0 0.000
35301.00 1372.23 100.138995 0.0000000000000000 0.000000 252.327818 -1179261.727964 30.351116 125.402589 -20.540152 1435.645739 -6.472 -6.472 0.000000 3.299351 0.000 0 0.000
35201.00 1372.01 100.138995 0.0000000000000000 0.000000 252.327818 -1179565.250276 30.353347 125.409450 -20.547952 1435.599724 -6.479 -6.479 0.000000 3.299109 0.000 0 0.000
35101.00 1371.80 100.138995 0.0000000000000000 0.000000 252.327818 -1179868.794920 30.355583 125.416316 -20.555764 1435.554125 -6.485 -6.485 0.000000 3.298866 0.000 0 0.000
35001.00 1371.59 100.138995 0.0000000000000000 0.000000 252.327818 -1180172.361948 30.357824 125.423187 -20.563590 1435.508948 -6.491 -6.491 0.000000 3.298622 0.000 0 0.000
34901.00 1371.37 100.138995 0.0000000000000000 0.000000 252.327818 -1180475.951412 30.360070 125.430062 -20.571430 1435.464197 -6.498 -6.498 0.000000 3.298378 0.000 0 0.000
34801.00 1371.16 100.138995 0.0000000000000000 0.000000 252.327818 -1180779.563364 30.362321 125.436943 -20.579283 1435.419881 -6.504 -6.504 0.000000 3.298134 0.000 0 0.000
34701.00 1370.94 100.138995 0.0000000000000000 0.000000 252.327818 -1181083.197858 30.364578 125.443829 -20.587150 1435.376003 -6.511 -6.511 0.000000 3.297889 0.000 0 0.000
34601.00 1370.73 100.138995 0.0000000000000000 0.000000 252.327818 -1181386.854948 30.366841 125.450720 -20.595031 1435.332572 -6.517 -6.517 0.000000 3.297643 0.000 0 0.000
34501.00 1370.52 100.138995 0.0000000000000000 0.000000 252.327818 -1181690.534687 30.369108 125.457617 -20.602927 1435.289592 -6.523 -6.523 0.000000 3.297397 0.000 0 0.000
34401.00 1370.30 100.138995 0.0000000000000000 0.000000 252.327818 -1181994.237132 30.371382 125.464518 -20.610837 1435.247071 -6.530 -6.530 0.000000 3.297150 0.000 0 0.000
34301.00 1370.09 100.138995 0.0000000000000000 0.000000 252.327818 -1182297.962338 30.373661 125.471426 -20.618761 1435.205016 -6.536 -6.536 0.000000 3.296902 0.000 0 0.000
34201.00 1369.87 100.138995 0.0000000000000000 0.000000 252.327818 -1182601.710362 30.375945 125.478339 -20.626701 1435.163432 -6.543 -6.543 0.000000 3.296654 0.000 0 0.000
34101.00 1369.66 100.138995 0.0000000000000000 0.000000 252.327818 -1182905.481262 30.378236 125.485258 -20.634655 1435.122327 -6.549 -6.549 0.000000 3.296406 0.000 0 0.000
34001.00 1369.44 100.138995 0.0000000000000000 0.000000 252.327818 -1183209.275095 30.380532 125.492183 -20.642625 1435.081708 -6.556 -6.556 0.000000 3.296157 0.000 0 0.000
33901.00 1369.23 100.138995 0.0000000000000000 0.000000 252.327818 -1183513.091920 30.382834 125.499114 -20.650611 1435.041583 -6.563 -6.563 0.000000 3.295907 0.000 0 0.000
33801.00 1369.01 100.138995 0.0000000000000000 0.000000 252.327818 -1183816.931798 30.385142 125.506052 -20.658612 1435.001958 -6.569 -6.569 0.000000 3.295657 0.000 0 0.000
33701.00 1368.80 100.138995 0.0000000000000000 0.000000 252.327818 -1184120.794788 30.387457 125.512996 -20.666629 1434.962841 -6.576 -6.576 0.000000 3.295406 0.000 0 0.000
33601.00 1368.58 100.138995 0.0000000000000000 0.000000 252.327818 -1184424.680953 30.389777 125.519946 -20.674662 1434.924239 -6.583 -6.583 0.000000 3.295154 0.000 0 0.000
33501.00 1368.37 100.138995 0.0000000000000000 0.000000 252.327818 -1184728.590354 30.392104 125.526903 -20.682711 1434.886162 -6.589 -6.589 0.000000 3.294902 0.000 0 0.000
33401.00 1368.15 100.138995 0.0000000000000000 0.000000 252.327818 -1185032.523054 30.394437 125.533866 -20.690777 1434.848615 -6.596 -6.596 0.000000 3.294649 0.000 0 0.000
33301.00 1367.93 100.138995 0.0000000000000000 0.000000 252.327818 -1185336.479117 30.396777 125.540837 -20.698861 1434.811609 -6.603 -6.603 0.000000 3.294395 0.000 0 0.000
33201.00 1367.72 100.138995 0.0000000000000000 0.000000 252.327818 -1185640.458608 30.399123 125.547814 -20.706961 1434.775151 -6.610 -6.610 0.000000 3.294141 0.000 0 0.000
33101.00 1367.50 100.138995 0.0000000000000000 0.000000 252.327818 -1185944.461592 30.401475 125.554799 -20.715078 1434.739250 -6.617 -6.617 0.000000 3.293886 0.000 0 0.000
33001.00 1367.29 100.138995 0.0000000000000000 0.000000 252.327818 -1186248.488137 30.403835 125.561791 -20.723213 1434.703914 -6.624 -6.624 0.000000 3.293630 0.000 0 0.000
32901.00 1367.07 100.138995 0.0000000000000000 0.000000 252.327818 -1186552.538309 30.406201 125.568791 -20.731366 1434.669152 -6.630 -6.630 0.000000 3.293374 0.000 0 0.000
32801.00 1366.85 100.138995 0.0000000000000000 0.000000 252.327818 -1186856.612177 30.408574 125.575798 -20.739538 1434.634975 -6.637 -6.637 0.000000 3.293117 0.000 0 0.000
