Title: Depleted MORB Mantle of Workmann & Hart 2005

Phase Masses:
Pressure Temperature mass liquid_0 olivine_0 garnet_0 orthopyroxene_0 clinopyroxene_0 feldspar_0 spinel_0 
44001.00 1536.29 100.138999 0.232760 58.775715 12.466350 13.364460 14.174050 0.000000 1.125663 
43901.00 1536.06 100.138999 0.230173 58.777744 12.450427 13.365018 14.188543 0.000000 1.127093 
43801.00 1535.84 100.138999 0.227635 58.779701 12.434421 13.365676 14.203030 0.000000 1.128536 
43701.00 1535.61 100.138999 0.225144 58.781584 12.418334 13.366434 14.217510 0.000000 1.129993 
43601.00 1535.38 100.138999 0.222702 58.783393 12.402162 13.367293 14.231984 0.000000 1.131465 
43501.00 1535.16 100.138999 0.220308 58.785128 12.385906 13.368254 14.246452 0.000000 1.132950 
43401.00 1534.93 100.138999 0.217963 58.786789 12.369565 13.369319 14.260913 0.000000 1.134450 
43301.00 1534.70 100.138999 0.215666 58.788376 12.353138 13.370489 14.275367 0.000000 1.135964 
43201.00 1534.47 100.138999 0.213417 58.789887 12.336623 13.371764 14.289815 0.000000 1.137493 
43101.00 1534.24 100.138999 0.211217 58.791323 12.320020 13.373146 14.304256 0.000000 1.139037 
43001.00 1534.02 100.138999 0.209065 58.792684 12.303328 13.374635 14.318690 0.000000 1.140596 
42901.00 1533.79 100.138999 0.206963 58.793968 12.286546 13.376234 14.333117 0.000000 1.142171 
42801.00 1533.56 100.138999 0.204908 58.795177 12.269673 13.377942 14.347538 0.000000 1.143761 
42701.00 1533.33 100.138999 0.202903 58.796309 12.252707 13.379761 14.361952 0.000000 1.145367 
42601.00 1533.10 100.138999 0.200947 58.797364 12.235648 13.381693 14.376358 0.000000 1.146989 
42501.00 1532.87 100.138999 0.199039 58.798342 12.218495 13.383738 14.390758 0.000000 1.148628 
42401.00 1532.64 100.138999 0.197181 58.799242 12.201246 13.385898 14.405150 0.000000 1.150283 
42301.00 1532.40 100.138999 0.195372 58.800064 12.183901 13.388173 14.419535 0.000000 1.151954 
42201.00 1532.17 100.138999 0.193612 58.800808 12.166457 13.390565 14.433913 0.000000 1.153643 
42101.00 1531.94 100.138999 0.191902 58.801473 12.148915 13.393076 14.448284 0.000000 1.155349 
42001.00 1531.71 100.138999 0.190242 58.802059 12.131273 13.395705 14.462647 0.000000 1.157072 
41901.00 1531.48 100.138999 0.188631 58.802565 12.113530 13.398456 14.477004 0.000000 1.158814 
41801.00 1531.24 100.138999 0.187071 58.802991 12.095684 13.401328 14.491352 0.000000 1.160573 
41701.00 1531.01 100.138999 0.185560 58.803337 12.077735 13.404323 14.505694 0.000000 1.162350 
41601.00 1530.78 100.138999 0.184100 58.803602 12.059680 13.407443 14.520028 0.000000 1.164146 
41501.00 1530.54 100.138999 0.182690 58.803786 12.041519 13.410688 14.534355 0.000000 1.165961 
41401.00 1530.31 100.138999 0.181331 58.803888 12.023251 13.414060 14.548674 0.000000 1.167795 
41301.00 1530.07 100.138999 0.180023 58.803908 12.004873 13.417561 14.562986 0.000000 1.169648 
41201.00 1529.84 100.138999 0.178766 58.803845 11.986386 13.421191 14.577290 0.000000 1.171521 
41101.00 1529.60 100.138999 0.177560 58.803700 11.967786 13.424952 14.591587 0.000000 1.173414 
41001.00 1529.36 100.138999 0.176405 58.803470 11.949073 13.428846 14.605877 0.000000 1.175327 
40901.00 1529.13 100.138999 0.175303 58.803157 11.930246 13.432873 14.620159 0.000000 1.177261 
40801.00 1528.89 100.138999 0.174252 58.802759 11.911303 13.437035 14.634434 0.000000 1.179215 
40701.00 1528.65 100.138999 0.173253 58.802276 11.892242 13.441334 14.648702 0.000000 1.181191 
40601.00 1528.42 100.138999 0.172307 58.801708 11.873062 13.445771 14.662962 0.000000 1.183188 
40501.00 1528.18 100.138999 0.171414 58.801053 11.853762 13.450348 14.677216 0.000000 1.185207 
40401.00 1527.94 100.138999 0.170573 58.800312 11.834339 13.455065 14.691461 0.000000 1.187248 
40301.00 1527.70 100.138999 0.169786 58.799484 11.814792 13.459924 14.705700 0.000000 1.189312 
40201.00 1527.46 100.138999 0.169052 58.798568 11.795120 13.464928 14.719932 0.000000 1.191398 
40101.00 1527.22 100.138999 0.168372 58.797564 11.775321 13.470077 14.734157 0.000000 1.193508 
40001.00 1526.98 100.138999 0.167746 58.796471 11.755393 13.475372 14.748375 0.000000 1.195641 
39901.00 1526.74 100.138999 0.167175 58.795289 11.735334 13.480816 14.762586 0.000000 1.197799 
39801.00 1526.50 100.138999 0.166658 58.794017 11.715143 13.486411 14.776790 0.000000 1.199980 
39701.00 1526.26 100.138999 0.166197 58.792655 11.694817 13.492156 14.790988 0.000000 1.202187 
39601.00 1526.02 100.138999 0.165791 58.791201 11.674355 13.498055 14.805179 0.000000 1.204418 
39501.00 1525.77 100.138999 0.165440 58.789656 11.653755 13.504109 14.819364 0.000000 1.206675 
39401.00 1525.53 100.138999 0.165146 58.788018 11.633016 13.510319 14.833543 0.000000 1.208958 
39301.00 1525.29 100.138999 0.164908 58.786288 11.612134 13.516687 14.847716 0.000000 1.211267 
39201.00 1525.04 100.138999 0.164727 58.784463 11.591108 13.523215 14.861883 0.000000 1.213602 
39101.00 1524.80 100.138999 0.164603 58.782545 11.569937 13.529904 14.876045 0.000000 1.215965 
39001.00 1524.56 100.138999 0.164537 58.780532 11.548617 13.536756 14.890201 0.000000 1.218356 
38901.00 1524.31 100.138999 0.164529 58.778423 11.527148 13.543773 14.904352 0.000000 1.220774 
38801.00 1524.07 100.138999 0.164579 58.776218 11.505525 13.550957 14.918497 0.000000 1.223222 
38701.00 1523.82 100.138999 0.164688 58.773916 11.483749 13.558309 14.932638 0.000000 1.225698 
38601.00 1523.57 100.138999 0.164857 58.771517 11.461815 13.565832 14.946775 0.000000 1.228203 
38501.00 1523.33 100.138999 0.165085 58.769019 11.439722 13.573526 14.960907 0.000000 1.230739 
38401.00 1523.08 100.138999 0.165374 58.766423 11.417468 13.581394 14.975036 0.000000 1.233304 
38301.00 1522.83 100.138999 0.165723 58.763727 11.395050 13.589438 14.989160 0.000000 1.235901 
38201.00 1522.58 100.138999 0.166133 58.760930 11.372466 13.597659 15.003282 0.000000 1.238529 
38101.00 1522.34 100.138999 0.166606 58.758032 11.349712 13.606059 15.017400 0.000000 1.241190 
38001.00 1522.09 100.138999 0.167140 58.755032 11.326788 13.614641 15.031516 0.000000 1.243882 
37901.00 1521.84 100.138999 0.167737 58.751930 11.303689 13.623406 15.045630 0.000000 1.246608 
37801.00 1521.59 100.138999 0.168397 58.748724 11.280414 13.632356 15.059741 0.000000 1.249367 
37701.00 1521.34 100.138999 0.169121 58.745413 11.256959 13.641493 15.073851 0.000000 1.252161 
37601.00 1521.09 100.138999 0.169909 58.741998 11.233322 13.650820 15.087961 0.000000 1.254989 
37501.00 1520.84 100.138999 0.170762 58.738477 11.209501 13.660337 15.102069 0.000000 1.257853 
37401.00 1520.58 100.138999 0.171681 58.734849 11.185491 13.670048 15.116178 0.000000 1.260753 
37301.00 1520.33 100.138999 0.172665 58.731114 11.161291 13.679954 15.130287 0.000000 1.263689 
37201.00 1520.08 100.138999 0.173716 58.727270 11.136897 13.690057 15.144397 0.000000 1.266662 
37101.00 1519.82 100.138999 0.174835 58.723317 11.112306 13.700360 15.158508 0.000000 1.269673 
37001.00 1519.57 100.138999 0.176021 58.719254 11.087515 13.710864 15.172622 0.000000 1.272723 
36901.00 1519.32 100.138999 0.177276 58.715080 11.062521 13.721572 15.186738 0.000000 1.275812 
36801.00 1519.06 100.138999 0.178600 58.710794 11.037321 13.732486 15.200857 0.000000 1.278941 
36701.00 1518.81 100.138999 0.179994 58.706396 11.011911 13.743608 15.214980 0.000000 1.282110 
36601.00 1518.55 100.138999 0.181458 58.701883 10.986288 13.754940 15.229108 0.000000 1.285321 
36501.00 1518.29 100.138999 0.182994 58.697256 10.960449 13.766485 15.243241 0.000000 1.288574 
36401.00 1518.04 100.138999 0.184602 58.692513 10.934390 13.778245 15.257380 0.000000 1.291869 
36301.00 1517.78 100.138999 0.186282 58.687654 10.908106 13.790222 15.271526 0.000000 1.295208 
36201.00 1517.52 100.138999 0.188036 58.682677 10.881596 13.802419 15.285679 0.000000 1.298592 
36101.00 1517.26 100.138999 0.189864 58.677582 10.854854 13.814838 15.299840 0.000000 1.302020 
36001.00 1517.00 100.138999 0.191767 58.672367 10.827878 13.827482 15.314011 0.000000 1.305494 
35901.00 1516.74 100.138999 0.193746 58.667031 10.800663 13.840352 15.328192 0.000000 1.309016 
35801.00 1516.48 100.138999 0.195801 58.661574 10.773205 13.853451 15.342384 0.000000 1.312584 
35701.00 1516.22 100.138999 0.197934 58.655994 10.745499 13.866782 15.356588 0.000000 1.316201 
35601.00 1515.96 100.138999 0.200145 58.650291 10.717543 13.880348 15.370805 0.000000 1.319868 
35501.00 1515.70 100.138999 0.202435 58.644462 10.689332 13.894150 15.385035 0.000000 1.323585 
35401.00 1515.43 100.138999 0.204805 58.638507 10.660861 13.908192 15.399281 0.000000 1.327352 
35301.00 1515.17 100.138999 0.207257 58.632426 10.632125 13.922477 15.413543 0.000000 1.331172 
35201.00 1514.90 100.138999 0.209790 58.626216 10.603121 13.937005 15.427822 0.000000 1.335046 
35101.00 1514.64 100.138999 0.212405 58.619876 10.573844 13.951782 15.442119 0.000000 1.338973 
35001.00 1514.37 100.138999 0.215105 58.613406 10.544288 13.966808 15.456436 0.000000 1.342955 
34901.00 1514.11 100.138999 0.217889 58.606804 10.514450 13.982088 15.470774 0.000000 1.346993 
34801.00 1513.84 100.138999 0.220759 58.600069 10.484324 13.997623 15.485134 0.000000 1.351089 
34701.00 1513.57 100.138999 0.223716 58.593200 10.453905 14.013418 15.499517 0.000000 1.355243 
34601.00 1513.31 100.138999 0.226761 58.586195 10.423188 14.029473 15.513926 0.000000 1.359456 
34501.00 1513.04 100.138999 0.229895 58.579054 10.392168 14.045793 15.528360 0.000000 1.363729 
34401.00 1512.77 100.138999 0.233118 58.571774 10.360839 14.062381 15.542823 0.000000 1.368065 
34301.00 1512.50 100.138999 0.236433 58.564354 10.329196 14.079238 15.557315 0.000000 1.372463 
34201.00 1512.23 100.138999 0.239840 58.556794 10.297233 14.096370 15.571838 0.000000 1.376925 
34101.00 1511.96 100.138999 0.243340 58.549092 10.264944 14.113778 15.586393 0.000000 1.381452 
34001.00 1511.68 100.138999 0.246935 58.541246 10.232325 14.131465 15.600983 0.000000 1.386046 
33901.00 1511.41 100.138999 0.250626 58.533254 10.199367 14.149436 15.615609 0.000000 1.390707 
33801.00 1511.14 100.138999 0.254413 58.525117 10.166067 14.167692 15.630272 0.000000 1.395438 
33701.00 1510.86 100.138999 0.258299 58.516831 10.132416 14.186238 15.644975 0.000000 1.400239 
33601.00 1510.59 100.138999 0.262285 58.508396 10.098409 14.205077 15.659720 0.000000 1.405112 
33501.00 1510.31 100.138999 0.266371 58.499809 10.064040 14.224212 15.674509 0.000000 1.410058 
33401.00 1510.04 100.138999 0.270560 58.491070 10.029301 14.243646 15.689343 0.000000 1.415079 
33301.00 1509.76 100.138999 0.274852 58.482177 9.994186 14.263384 15.704224 0.000000 1.420176 
33201.00 1509.48 100.138999 0.279250 58.473128 9.958687 14.283427 15.719156 0.000000 1.425351 
33101.00 1509.20 100.138999 0.283754 58.463921 9.922798 14.303782 15.734140 0.000000 1.430605 
33001.00 1508.92 100.138999 0.288365 58.454556 9.886511 14.324449 15.749178 0.000000 1.435940 
32901.00 1508.64 100.138999 0.293087 58.445029 9.849819 14.345435 15.764273 0.000000 1.441357 
32801.00 1508.36 100.138999 0.297919 58.435340 9.812714 14.366741 15.779427 0.000000 1.446858 
32701.00 1508.08 100.138999 0.302864 58.425486 9.775188 14.388373 15.794643 0.000000 1.452445 
32601.00 1507.80 100.138999 0.307923 58.415466 9.737233 14.410334 15.809923 0.000000 1.458120 
32501.00 1507.51 100.138999 0.313097 58.405278 9.698842 14.432627 15.825271 0.000000 1.463884 
32401.00 1507.23 100.138999 0.318389 58.394919 9.660005 14.455258 15.840688 0.000000 1.469739 
32301.00 1506.94 100.138999 0.323801 58.384389 9.620713 14.478230 15.856178 0.000000 1.475688 
32201.00 1506.66 100.138999 0.329333 58.373685 9.580960 14.501547 15.871744 0.000000 1.481731 
32101.00 1506.37 100.138999 0.334987 58.362805 9.540734 14.525214 15.887388 0.000000 1.487871 
32001.00 1506.08 100.138999 0.340767 58.351747 9.500027 14.549234 15.903114 0.000000 1.494110 
31901.00 1505.79 100.138999 0.346672 58.340509 9.458830 14.573613 15.918925 0.000000 1.500450 
31801.00 1505.50 100.138999 0.352706 58.329089 9.417133 14.598354 15.934824 0.000000 1.506893 
31701.00 1505.21 100.138999 0.358870 58.317484 9.374926 14.623463 15.950815 0.000000 1.513441 
31601.00 1504.92 100.138999 0.365166 58.305692 9.332198 14.648944 15.966901 0.000000 1.520097 
31501.00 1504.63 100.138999 0.371597 58.293712 9.288941 14.674801 15.983086 0.000000 1.526863 
31401.00 1504.33 100.138999 0.378164 58.281540 9.245142 14.701041 15.999373 0.000000 1.533740 
31301.00 1504.04 100.138999 0.384869 58.269175 9.200791 14.727666 16.015766 0.000000 1.540732 
31201.00 1503.74 100.138999 0.391714 58.256613 9.155877 14.754683 16.032270 0.000000 1.547841 
31101.00 1503.45 100.138999 0.398703 58.243853 9.110388 14.782097 16.048888 0.000000 1.555070 
31001.00 1503.15 100.138999 0.405837 58.230892 9.064313 14.809912 16.065624 0.000000 1.562420 
30901.00 1502.85 100.138999 0.413117 58.217727 9.017640 14.838135 16.082484 0.000000 1.569896 
30801.00 1502.55 100.138999 0.420548 58.204355 8.970356 14.866771 16.099470 0.000000 1.577498 
30701.00 1502.25 100.138999 0.428131 58.190775 8.922449 14.895825 16.116588 0.000000 1.585231 
30601.00 1501.95 100.138999 0.435869 58.176982 8.873906 14.925302 16.133843 0.000000 1.593097 
30501.00 1501.64 100.138999 0.443763 58.162974 8.824714 14.955210 16.151239 0.000000 1.601099 
30401.00 1501.34 100.138999 0.451818 58.148749 8.774858 14.985553 16.168781 0.000000 1.609240 
30301.00 1501.03 100.138999 0.460035 58.134303 8.724326 15.016338 16.186475 0.000000 1.617523 
30201.00 1500.73 100.138999 0.468417 58.119633 8.673102 15.047571 16.204325 0.000000 1.625951 
30101.00 1500.42 100.138999 0.476967 58.104736 8.621172 15.079258 16.222338 0.000000 1.634528 
30001.00 1500.11 100.138999 0.485687 58.089609 8.568521 15.111407 16.240519 0.000000 1.643257 
29901.00 1499.80 100.138999 0.494582 58.074248 8.515134 15.144022 16.258873 0.000000 1.652141 
29801.00 1499.49 100.138999 0.503653 58.058650 8.460994 15.177112 16.277406 0.000000 1.661184 
29701.00 1499.17 100.138999 0.512903 58.042812 8.406085 15.210684 16.296126 0.000000 1.670389 
29601.00 1498.86 100.138999 0.522337 58.026730 8.350391 15.244743 16.315037 0.000000 1.679761 
29501.00 1498.54 100.138999 0.531956 58.010400 8.293894 15.279299 16.334147 0.000000 1.689303 
29401.00 1498.23 100.138999 0.541764 57.993819 8.236577 15.314357 16.353462 0.000000 1.699020 
29301.00 1497.91 100.138999 0.551765 57.976982 8.178420 15.349927 16.372990 0.000000 1.708914 
29201.00 1497.59 100.138999 0.561962 57.959886 8.119407 15.386016 16.392737 0.000000 1.718991 
29101.00 1497.27 100.138999 0.572358 57.942527 8.059517 15.422631 16.412711 0.000000 1.729255 
29001.00 1496.95 100.138999 0.582958 57.924901 7.998731 15.459782 16.432919 0.000000 1.739709 
28901.00 1496.62 100.138999 0.593763 57.907002 7.937028 15.497476 16.453370 0.000000 1.750360 
28801.00 1496.30 100.138999 0.604779 57.888828 7.874387 15.535723 16.474071 0.000000 1.761211 
28701.00 1495.97 100.138999 0.616009 57.870372 7.810787 15.574531 16.495032 0.000000 1.772267 
28601.00 1495.64 100.138999 0.627457 57.851631 7.746207 15.613910 16.516259 0.000000 1.783534 
28501.00 1495.31 100.138999 0.639127 57.832600 7.680622 15.653870 16.537764 0.000000 1.795016 
28401.00 1494.98 100.138999 0.651023 57.813274 7.614010 15.694419 16.559554 0.000000 1.806720 
28301.00 1494.65 100.138999 0.663149 57.793648 7.546346 15.735569 16.581639 0.000000 1.818649 
28201.00 1494.32 100.138999 0.675509 57.773716 7.477606 15.777328 16.604029 0.000000 1.830810 
28101.00 1493.98 100.138999 0.688109 57.753473 7.407763 15.819709 16.626735 0.000000 1.843210 
28001.00 1493.64 100.138999 0.700951 57.732914 7.336792 15.862722 16.649767 0.000000 1.855853 
27901.00 1493.30 100.138999 0.714041 57.712033 7.264666 15.906378 16.673135 0.000000 1.868746 
27801.00 1492.96 100.138999 0.727384 57.690824 7.191355 15.950689 16.696852 0.000000 1.881896 
27701.00 1492.62 100.138999 0.740983 57.669281 7.116832 15.995666 16.720928 0.000000 1.895308 
27601.00 1492.27 100.138999 0.754845 57.647397 7.041066 16.041323 16.745376 0.000000 1.908991 
27501.00 1491.93 100.138999 0.768974 57.625167 6.964026 16.087672 16.770209 0.000000 1.922951 
27401.00 1491.58 100.138999 0.783374 57.602583 6.885682 16.134726 16.795439 0.000000 1.937195 
27301.00 1491.23 100.138999 0.798052 57.579640 6.805999 16.182498 16.821079 0.000000 1.951731 
27201.00 1490.87 100.138999 0.813013 57.556328 6.724943 16.231003 16.847144 0.000000 1.966567 
27101.00 1490.52 100.138999 0.828261 57.532642 6.642481 16.280255 16.873649 0.000000 1.981711 
27001.00 1490.16 100.138999 0.843803 57.508574 6.558575 16.330269 16.900607 0.000000 1.997171 
26901.00 1489.81 100.138999 0.859644 57.484116 6.473189 16.381060 16.928034 0.000000 2.012956 
26801.00 1489.44 100.138999 0.875789 57.459260 6.386283 16.432644 16.955948 0.000000 2.029075 
26701.00 1489.08 100.138999 0.892246 57.433997 6.297817 16.485038 16.984363 0.000000 2.045537 
26601.00 1488.72 100.138999 0.909019 57.408319 6.207751 16.538259 17.013299 0.000000 2.062352 
26501.00 1488.35 100.138999 0.926115 57.382218 6.116040 16.592325 17.042771 0.000000 2.079529 
26401.00 1487.98 100.138999 0.943540 57.355682 6.022642 16.647253 17.072801 0.000000 2.097080 
26301.00 1487.61 100.138999 0.961301 57.328704 5.927509 16.703063 17.103406 0.000000 2.115015 
26201.00 1487.23 100.138999 0.979404 57.301274 5.830594 16.759774 17.134607 0.000000 2.133346 
26101.00 1486.86 100.138999 0.997855 57.273380 5.731849 16.817407 17.166426 0.000000 2.152083 
26001.00 1486.48 100.138999 1.016662 57.245013 5.631221 16.875982 17.198883 0.000000 2.171238 
25901.00 1486.10 100.123573 1.020314 57.216152 5.528738 16.935496 17.232049 0.000000 2.190824 
25801.00 1485.71 100.104302 1.020375 57.186786 5.424366 16.995963 17.265960 0.000000 2.210853 
25701.00 1485.33 100.084775 1.020435 57.156900 5.318053 17.057405 17.300645 0.000000 2.231337 
25601.00 1484.94 100.064990 1.020495 57.126484 5.209742 17.119842 17.336134 0.000000 2.252292 
25501.00 1484.55 100.044944 1.020555 57.095524 5.099376 17.183298 17.372459 0.000000 2.273732 
25401.00 1484.16 100.024635 1.020615 57.064006 4.986895 17.247797 17.409652 0.000000 2.295671 
25301.00 1483.76 100.004061 1.020674 57.031916 4.872236 17.313361 17.447747 0.000000 2.318126 
25201.00 1483.37 99.983219 1.020733 56.999239 4.755335 17.380018 17.486780 0.000000 2.341114 
25101.00 1482.97 99.962106 1.020792 56.965961 4.636124 17.447792 17.526787 0.000000 2.364650 
25001.00 1482.57 99.940722 1.020850 56.932064 4.514533 17.516712 17.567809 0.000000 2.388753 
24901.00 1482.16 99.919062 1.020908 56.897533 4.390489 17.586805 17.609886 0.000000 2.413441 
24801.00 1481.75 99.897126 1.020965 56.862350 4.263915 17.658101 17.653060 0.000000 2.438735 
24701.00 1481.35 99.874910 1.021021 56.826496 4.134733 17.730630 17.697377 0.000000 2.464654 
24601.00 1480.93 99.852414 1.021076 56.789954 4.002859 17.804424 17.742883 0.000000 2.491218 
24501.00 1480.52 99.829634 1.021130 56.752703 3.868206 17.879516 17.789628 0.000000 2.518452 
24401.00 1480.10 99.806569 1.021184 56.714722 3.730685 17.955940 17.837663 0.000000 2.546377 
24301.00 1479.68 99.783218 1.021236 56.675990 3.590200 18.033731 17.887042 0.000000 2.575017 
24201.00 1479.26 99.759577 1.021287 56.636485 3.446655 18.112928 17.937823 0.000000 2.604398 
24101.00 1478.83 99.735646 1.021337 56.596183 3.299945 18.193569 17.990066 0.000000 2.634547 
24001.00 1478.40 99.711424 1.021385 56.555058 3.149963 18.275694 18.043832 0.000000 2.665491 
23901.00 1477.97 99.686908 1.021431 56.513087 2.996597 18.359346 18.099189 0.000000 2.697259 
23801.00 1477.54 99.662098 1.021476 56.470240 2.839727 18.444568 18.156206 0.000000 2.729881 
23701.00 1477.10 99.636992 1.021518 56.426490 2.679232 18.531405 18.214957 0.000000 2.763390 
23601.00 1476.66 99.611590 1.021558 56.381807 2.514981 18.619907 18.275519 0.000000 2.797818 
