Title: Depleted MORB Mantle of Workmann & Hart 2005

Solid Composition:
Pressure Temperature mass SiO2 TiO2 Al2O3 Fe2O3 Cr2O3 FeO MnO MgO NiO CaO Na2O 
44001.00 1536.29 99.906239 44.6576 0.126161 3.98033 0.190205 0.568726 7.97591 0.129686 38.7093 0.239938 3.16516 0.257019
43901.00 1536.06 99.908826 44.6575 0.126201 3.98021 0.190212 0.568728 7.9762 0.129689 38.7089 0.239936 3.16516 0.257246
43801.00 1535.84 99.911364 44.6574 0.12624 3.9801 0.190219 0.568731 7.97648 0.129691 38.7086 0.239933 3.16515 0.257469
43701.00 1535.61 99.913855 44.6572 0.126279 3.97998 0.190226 0.568733 7.97676 0.129693 38.7083 0.239931 3.16514 0.257689
43601.00 1535.38 99.916297 44.6571 0.126316 3.97987 0.190232 0.568735 7.97704 0.129696 38.708 0.239929 3.16513 0.257905
43501.00 1535.16 99.918691 44.657 0.126354 3.97976 0.190239 0.568737 7.97731 0.129698 38.7077 0.239927 3.16513 0.258117
43401.00 1534.93 99.921036 44.6569 0.12639 3.97965 0.190245 0.56874 7.97757 0.1297 38.7074 0.239925 3.16512 0.258326
43301.00 1534.70 99.923333 44.6568 0.126426 3.97954 0.190251 0.568742 7.97783 0.129702 38.7072 0.239923 3.16511 0.258531
43201.00 1534.47 99.925582 44.6567 0.126461 3.97944 0.190257 0.568744 7.97808 0.129704 38.7069 0.239921 3.1651 0.258731
43101.00 1534.24 99.927782 44.6566 0.126496 3.97933 0.190263 0.568746 7.97833 0.129706 38.7066 0.239919 3.1651 0.258928
43001.00 1534.02 99.929934 44.6565 0.126529 3.97923 0.190268 0.568749 7.97857 0.129709 38.7063 0.239917 3.16509 0.259121
42901.00 1533.79 99.932037 44.6564 0.126562 3.97913 0.190274 0.568751 7.97881 0.129711 38.7061 0.239915 3.16508 0.259311
42801.00 1533.56 99.934091 44.6563 0.126595 3.97903 0.190279 0.568753 7.97904 0.129713 38.7058 0.239913 3.16508 0.259496
42701.00 1533.33 99.936096 44.6562 0.126626 3.97893 0.190284 0.568756 7.97926 0.129715 38.7056 0.239912 3.16507 0.259677
42601.00 1533.10 99.938052 44.6561 0.126657 3.97883 0.19029 0.568758 7.97948 0.129717 38.7053 0.23991 3.16506 0.259854
42501.00 1532.87 99.939960 44.656 0.126687 3.97874 0.190295 0.56876 7.9797 0.129719 38.7051 0.239908 3.16505 0.260027
42401.00 1532.64 99.941818 44.6559 0.126717 3.97864 0.190299 0.568762 7.97991 0.12972 38.7049 0.239907 3.16505 0.260196
42301.00 1532.40 99.943627 44.6558 0.126746 3.97855 0.190304 0.568765 7.98011 0.129722 38.7047 0.239905 3.16504 0.260361
42201.00 1532.17 99.945387 44.6557 0.126774 3.97846 0.190309 0.568767 7.98031 0.129724 38.7044 0.239904 3.16503 0.260522
42101.00 1531.94 99.947097 44.6557 0.126801 3.97837 0.190313 0.568769 7.98051 0.129726 38.7042 0.239902 3.16502 0.260678
42001.00 1531.71 99.948757 44.6556 0.126828 3.97828 0.190317 0.568771 7.9807 0.129728 38.704 0.239901 3.16502 0.260831
41901.00 1531.48 99.950368 44.6555 0.126853 3.9782 0.190321 0.568773 7.98088 0.129729 38.7038 0.2399 3.16501 0.260979
41801.00 1531.24 99.951928 44.6554 0.126879 3.97811 0.190325 0.568775 7.98106 0.129731 38.7037 0.239898 3.165 0.261123
41701.00 1531.01 99.953439 44.6554 0.126903 3.97803 0.190329 0.568778 7.98124 0.129733 38.7035 0.239897 3.16499 0.261262
41601.00 1530.78 99.954899 44.6553 0.126927 3.97794 0.190333 0.56878 7.98141 0.129734 38.7033 0.239896 3.16498 0.261397
41501.00 1530.54 99.956309 44.6552 0.126949 3.97786 0.190337 0.568782 7.98157 0.129736 38.7031 0.239895 3.16498 0.261528
41401.00 1530.31 99.957668 44.6552 0.126972 3.97778 0.19034 0.568784 7.98173 0.129738 38.703 0.239894 3.16497 0.261654
41301.00 1530.07 99.958976 44.6551 0.126993 3.9777 0.190343 0.568785 7.98189 0.129739 38.7028 0.239893 3.16496 0.261776
41201.00 1529.84 99.960233 44.655 0.127014 3.97762 0.190347 0.568787 7.98204 0.129741 38.7027 0.239892 3.16495 0.261894
41101.00 1529.60 99.961439 44.655 0.127034 3.97754 0.19035 0.568789 7.98218 0.129742 38.7025 0.239891 3.16494 0.262007
41001.00 1529.36 99.962594 44.6549 0.127053 3.97747 0.190353 0.568791 7.98232 0.129744 38.7024 0.23989 3.16493 0.262115
40901.00 1529.13 99.963696 44.6549 0.127071 3.97739 0.190356 0.568793 7.98246 0.129745 38.7023 0.23989 3.16492 0.262219
40801.00 1528.89 99.964747 44.6548 0.127089 3.97732 0.190358 0.568794 7.98259 0.129747 38.7022 0.239889 3.16492 0.262318
40701.00 1528.65 99.965746 44.6548 0.127106 3.97725 0.190361 0.568796 7.98272 0.129748 38.7021 0.239888 3.16491 0.262412
40601.00 1528.42 99.966692 44.6547 0.127122 3.97717 0.190363 0.568798 7.98284 0.129749 38.702 0.239888 3.1649 0.262502
40501.00 1528.18 99.967585 44.6547 0.127137 3.9771 0.190365 0.568799 7.98295 0.129751 38.7019 0.239888 3.16489 0.262587
40401.00 1527.94 99.968426 44.6546 0.127151 3.97703 0.190368 0.568801 7.98307 0.129752 38.7018 0.239887 3.16488 0.262667
40301.00 1527.70 99.969213 44.6546 0.127165 3.97696 0.19037 0.568802 7.98317 0.129753 38.7017 0.239887 3.16487 0.262743
40201.00 1527.46 99.969947 44.6546 0.127178 3.97689 0.190372 0.568803 7.98327 0.129755 38.7016 0.239887 3.16486 0.262814
40101.00 1527.22 99.970627 44.6545 0.12719 3.97682 0.190373 0.568805 7.98337 0.129756 38.7016 0.239886 3.16485 0.26288
40001.00 1526.98 99.971253 44.6545 0.127202 3.97675 0.190375 0.568806 7.98347 0.129757 38.7015 0.239886 3.16484 0.26294
39901.00 1526.74 99.971824 44.6545 0.127212 3.97669 0.190376 0.568807 7.98355 0.129758 38.7014 0.239886 3.16482 0.262996
39801.00 1526.50 99.972341 44.6544 0.127222 3.97662 0.190378 0.568808 7.98364 0.12976 38.7014 0.239886 3.16481 0.263048
39701.00 1526.26 99.972802 44.6544 0.127231 3.97655 0.190379 0.568809 7.98372 0.129761 38.7014 0.239886 3.1648 0.263094
39601.00 1526.02 99.973209 44.6544 0.127239 3.97649 0.19038 0.56881 7.98379 0.129762 38.7014 0.239887 3.16479 0.263135
39501.00 1525.77 99.973559 44.6543 0.127246 3.97642 0.190381 0.568811 7.98386 0.129763 38.7013 0.239887 3.16478 0.263171
39401.00 1525.53 99.973853 44.6543 0.127253 3.97635 0.190382 0.568812 7.98393 0.129764 38.7013 0.239887 3.16476 0.263201
39301.00 1525.29 99.974091 44.6543 0.127258 3.97629 0.190383 0.568813 7.98399 0.129765 38.7013 0.239888 3.16475 0.263227
39201.00 1525.04 99.974272 44.6543 0.127263 3.97622 0.190383 0.568813 7.98404 0.129767 38.7013 0.239888 3.16474 0.263248
39101.00 1524.80 99.974396 44.6543 0.127267 3.97616 0.190384 0.568814 7.98409 0.129768 38.7014 0.239889 3.16472 0.263263
39001.00 1524.56 99.974462 44.6543 0.12727 3.9761 0.190384 0.568815 7.98414 0.129769 38.7014 0.239889 3.16471 0.263273
38901.00 1524.31 99.974470 44.6543 0.127273 3.97603 0.190384 0.568815 7.98418 0.12977 38.7014 0.23989 3.16469 0.263278
38801.00 1524.07 99.974420 44.6543 0.127274 3.97597 0.190384 0.568816 7.98422 0.129771 38.7015 0.239891 3.16468 0.263277
38701.00 1523.82 99.974311 44.6542 0.127275 3.9759 0.190384 0.568816 7.98426 0.129772 38.7015 0.239892 3.16466 0.263272
38601.00 1523.57 99.974142 44.6542 0.127275 3.97584 0.190384 0.568816 7.98429 0.129773 38.7016 0.239893 3.16464 0.26326
38501.00 1523.33 99.973914 44.6542 0.127274 3.97577 0.190383 0.568817 7.98431 0.129774 38.7017 0.239894 3.16463 0.263244
38401.00 1523.08 99.973625 44.6542 0.127272 3.97571 0.190383 0.568817 7.98433 0.129775 38.7017 0.239895 3.16461 0.263222
38301.00 1522.83 99.973276 44.6543 0.127269 3.97564 0.190382 0.568817 7.98435 0.129776 38.7018 0.239896 3.16459 0.263194
38201.00 1522.58 99.972866 44.6543 0.127265 3.97557 0.190381 0.568817 7.98436 0.129777 38.7019 0.239897 3.16457 0.263161
38101.00 1522.34 99.972394 44.6543 0.127261 3.97551 0.19038 0.568817 7.98436 0.129778 38.7021 0.239899 3.16455 0.263122
38001.00 1522.09 99.971859 44.6543 0.127255 3.97544 0.190379 0.568817 7.98437 0.129779 38.7022 0.2399 3.16453 0.263078
37901.00 1521.84 99.971262 44.6543 0.127249 3.97537 0.190378 0.568817 7.98437 0.12978 38.7023 0.239902 3.16451 0.263028
37801.00 1521.59 99.970602 44.6543 0.127242 3.9753 0.190376 0.568816 7.98436 0.129781 38.7024 0.239904 3.16449 0.262973
37701.00 1521.34 99.969878 44.6543 0.127234 3.97523 0.190375 0.568816 7.98435 0.129782 38.7026 0.239906 3.16447 0.262912
37601.00 1521.09 99.969090 44.6543 0.127225 3.97516 0.190373 0.568816 7.98433 0.129783 38.7028 0.239908 3.16444 0.262845
37501.00 1520.84 99.968237 44.6544 0.127215 3.97509 0.190371 0.568815 7.98431 0.129784 38.7029 0.23991 3.16442 0.262772
37401.00 1520.58 99.967319 44.6544 0.127204 3.97502 0.190369 0.568815 7.98429 0.129785 38.7031 0.239912 3.16439 0.262694
37301.00 1520.33 99.966334 44.6544 0.127193 3.97494 0.190367 0.568814 7.98426 0.129786 38.7033 0.239914 3.16437 0.26261
37201.00 1520.08 99.965283 44.6545 0.12718 3.97487 0.190365 0.568814 7.98423 0.129787 38.7035 0.239916 3.16434 0.262519
37101.00 1519.82 99.964164 44.6545 0.127167 3.97479 0.190362 0.568813 7.98419 0.129788 38.7037 0.239919 3.16432 0.262423
37001.00 1519.57 99.962978 44.6545 0.127153 3.97471 0.19036 0.568813 7.98415 0.12979 38.704 0.239921 3.16429 0.262322
36901.00 1519.32 99.961723 44.6546 0.127137 3.97463 0.190357 0.568812 7.98411 0.129791 38.7042 0.239924 3.16426 0.262214
36801.00 1519.06 99.960399 44.6546 0.127121 3.97455 0.190354 0.568811 7.98406 0.129792 38.7045 0.239927 3.16423 0.2621
36701.00 1518.81 99.959005 44.6546 0.127104 3.97447 0.190351 0.568811 7.984 0.129793 38.7047 0.23993 3.1642 0.26198
36601.00 1518.55 99.957541 44.6547 0.127086 3.97438 0.190348 0.56881 7.98394 0.129794 38.705 0.239933 3.16416 0.261854
36501.00 1518.29 99.956005 44.6547 0.127067 3.97429 0.190344 0.568809 7.98388 0.129795 38.7053 0.239936 3.16413 0.261722
36401.00 1518.04 99.954397 44.6548 0.127047 3.9742 0.19034 0.568808 7.98381 0.129796 38.7056 0.239939 3.16409 0.261584
36301.00 1517.78 99.952717 44.6548 0.127026 3.97411 0.190337 0.568807 7.98374 0.129797 38.7059 0.239943 3.16406 0.26144
36201.00 1517.52 99.950963 44.6549 0.127005 3.97402 0.190333 0.568807 7.98367 0.129799 38.7062 0.239946 3.16402 0.261289
36101.00 1517.26 99.949135 44.655 0.126982 3.97392 0.190328 0.568806 7.98359 0.1298 38.7066 0.23995 3.16398 0.261133
36001.00 1517.00 99.947232 44.655 0.126958 3.97382 0.190324 0.568805 7.9835 0.129801 38.7069 0.239954 3.16394 0.26097
35901.00 1516.74 99.945253 44.6551 0.126934 3.97372 0.19032 0.568804 7.98341 0.129802 38.7073 0.239958 3.1639 0.260801
35801.00 1516.48 99.943198 44.6551 0.126908 3.97362 0.190315 0.568803 7.98332 0.129804 38.7077 0.239962 3.16386 0.260625
35701.00 1516.22 99.941065 44.6552 0.126882 3.97351 0.19031 0.568803 7.98322 0.129805 38.708 0.239966 3.16381 0.260444
35601.00 1515.96 99.938854 44.6553 0.126854 3.9734 0.190305 0.568802 7.98312 0.129806 38.7084 0.239971 3.16377 0.260255
35501.00 1515.70 99.936564 44.6553 0.126826 3.97328 0.1903 0.568801 7.98302 0.129808 38.7089 0.239975 3.16372 0.260061
35401.00 1515.43 99.934194 44.6554 0.126796 3.97316 0.190294 0.5688 7.98291 0.129809 38.7093 0.23998 3.16367 0.25986
35301.00 1515.17 99.931743 44.6555 0.126766 3.97304 0.190288 0.5688 7.98279 0.129811 38.7097 0.239985 3.16362 0.259653
35201.00 1514.90 99.929209 44.6556 0.126734 3.97292 0.190283 0.568799 7.98267 0.129812 38.7102 0.23999 3.16357 0.259439
35101.00 1514.64 99.926594 44.6557 0.126702 3.97279 0.190277 0.568799 7.98255 0.129814 38.7107 0.239995 3.16351 0.259219
35001.00 1514.37 99.923894 44.6558 0.126669 3.97265 0.19027 0.568798 7.98242 0.129815 38.7112 0.24 3.16346 0.258992
34901.00 1514.11 99.921110 44.6558 0.126634 3.97252 0.190264 0.568798 7.98229 0.129817 38.7117 0.240005 3.1634 0.258759
34801.00 1513.84 99.918240 44.6559 0.126599 3.97237 0.190257 0.568798 7.98215 0.129819 38.7122 0.240011 3.16334 0.258519
34701.00 1513.57 99.915283 44.656 0.126563 3.97223 0.19025 0.568797 7.98201 0.12982 38.7127 0.240017 3.16328 0.258272
34601.00 1513.31 99.912238 44.6561 0.126525 3.97208 0.190243 0.568797 7.98187 0.129822 38.7133 0.240023 3.16321 0.258019
34501.00 1513.04 99.909104 44.6562 0.126487 3.97192 0.190236 0.568797 7.98172 0.129824 38.7139 0.240029 3.16315 0.25776
34401.00 1512.77 99.905881 44.6563 0.126448 3.97176 0.190228 0.568798 7.98156 0.129826 38.7144 0.240035 3.16308 0.257493
34301.00 1512.50 99.902566 44.6564 0.126407 3.97159 0.19022 0.568798 7.98141 0.129828 38.715 0.240042 3.16301 0.25722
34201.00 1512.23 99.899159 44.6565 0.126366 3.97142 0.190212 0.568798 7.98124 0.12983 38.7157 0.240048 3.16293 0.25694
34101.00 1511.96 99.895659 44.6567 0.126323 3.97124 0.190204 0.568799 7.98108 0.129832 38.7163 0.240055 3.16286 0.256654
34001.00 1511.68 99.892064 44.6568 0.12628 3.97106 0.190195 0.5688 7.98091 0.129834 38.717 0.240062 3.16278 0.25636
33901.00 1511.41 99.888374 44.6569 0.126235 3.97087 0.190187 0.568801 7.98073 0.129836 38.7176 0.24007 3.1627 0.25606
33801.00 1511.14 99.884586 44.657 0.12619 3.97068 0.190178 0.568802 7.98055 0.129839 38.7183 0.240077 3.16262 0.255753
33701.00 1510.86 99.880700 44.6571 0.126143 3.97047 0.190168 0.568803 7.98037 0.129841 38.719 0.240085 3.16253 0.25544
33601.00 1510.59 99.876714 44.6573 0.126096 3.97027 0.190159 0.568805 7.98018 0.129843 38.7198 0.240093 3.16244 0.255119
33501.00 1510.31 99.872628 44.6574 0.126047 3.97005 0.190149 0.568806 7.97998 0.129846 38.7205 0.240101 3.16235 0.254792
33401.00 1510.04 99.868439 44.6575 0.125998 3.96983 0.190139 0.568808 7.97979 0.129848 38.7213 0.240109 3.16225 0.254457
33301.00 1509.76 99.864147 44.6576 0.125947 3.9696 0.190129 0.568811 7.97958 0.129851 38.722 0.240117 3.16215 0.254116
33201.00 1509.48 99.859749 44.6578 0.125895 3.96936 0.190118 0.568813 7.97938 0.129854 38.7228 0.240126 3.16205 0.253768
33101.00 1509.20 99.855245 44.6579 0.125842 3.96912 0.190107 0.568816 7.97917 0.129857 38.7237 0.240135 3.16195 0.253413
33001.00 1508.92 99.850634 44.6581 0.125788 3.96886 0.190096 0.568819 7.97895 0.12986 38.7245 0.240144 3.16184 0.253051
32901.00 1508.64 99.845912 44.6582 0.125734 3.9686 0.190085 0.568823 7.97873 0.129862 38.7254 0.240154 3.16173 0.252682
32801.00 1508.36 99.841080 44.6584 0.125678 3.96833 0.190073 0.568827 7.97851 0.129866 38.7263 0.240163 3.16161 0.252306
32701.00 1508.08 99.836135 44.6585 0.125621 3.96806 0.190061 0.568831 7.97828 0.129869 38.7272 0.240173 3.16149 0.251923
32601.00 1507.80 99.831077 44.6587 0.125562 3.96777 0.190049 0.568835 7.97804 0.129872 38.7281 0.240183 3.16137 0.251533
32501.00 1507.51 99.825902 44.6588 0.125503 3.96747 0.190036 0.56884 7.9778 0.129875 38.7291 0.240193 3.16124 0.251136
32401.00 1507.23 99.820610 44.659 0.125443 3.96717 0.190023 0.568846 7.97756 0.129879 38.73 0.240204 3.16111 0.250732
32301.00 1506.94 99.815199 44.6592 0.125382 3.96685 0.19001 0.568852 7.97731 0.129882 38.731 0.240215 3.16098 0.250321
32201.00 1506.66 99.809666 44.6593 0.125319 3.96653 0.189996 0.568858 7.97706 0.129886 38.7321 0.240226 3.16084 0.249903
32101.00 1506.37 99.804012 44.6595 0.125256 3.96619 0.189983 0.568864 7.9768 0.12989 38.7331 0.240237 3.1607 0.249478
32001.00 1506.08 99.798232 44.6597 0.125191 3.96585 0.189968 0.568872 7.97654 0.129894 38.7342 0.240249 3.16055 0.249046
31901.00 1505.79 99.792327 44.6599 0.125126 3.96549 0.189954 0.568879 7.97627 0.129898 38.7353 0.240261 3.16039 0.248607
31801.00 1505.50 99.786293 44.66 0.125059 3.96512 0.189939 0.568888 7.976 0.129902 38.7364 0.240273 3.16024 0.24816
31701.00 1505.21 99.780129 44.6602 0.124991 3.96474 0.189924 0.568896 7.97573 0.129906 38.7375 0.240286 3.16007 0.247707
31601.00 1504.92 99.773833 44.6604 0.124922 3.96435 0.189908 0.568906 7.97545 0.129911 38.7387 0.240299 3.1599 0.247246
31501.00 1504.63 99.767402 44.6606 0.124852 3.96395 0.189892 0.568916 7.97516 0.129915 38.7399 0.240312 3.15973 0.246779
31401.00 1504.33 99.760835 44.6608 0.124781 3.96353 0.189876 0.568926 7.97487 0.12992 38.7411 0.240325 3.15955 0.246304
31301.00 1504.04 99.754130 44.661 0.124709 3.9631 0.189859 0.568937 7.97457 0.129925 38.7424 0.240339 3.15937 0.245822
31201.00 1503.74 99.747285 44.6612 0.124635 3.96266 0.189843 0.568949 7.97427 0.12993 38.7437 0.240353 3.15918 0.245333
31101.00 1503.45 99.740296 44.6614 0.124561 3.9622 0.189825 0.568962 7.97397 0.129935 38.745 0.240367 3.15898 0.244837
31001.00 1503.15 99.733163 44.6616 0.124485 3.96174 0.189807 0.568975 7.97366 0.12994 38.7463 0.240382 3.15878 0.244334
30901.00 1502.85 99.725882 44.6618 0.124409 3.96125 0.189789 0.568989 7.97334 0.129946 38.7477 0.240397 3.15857 0.243824
30801.00 1502.55 99.718451 44.662 0.124331 3.96075 0.189771 0.569004 7.97302 0.129951 38.7491 0.240412 3.15835 0.243307
30701.00 1502.25 99.710868 44.6623 0.124252 3.96024 0.189752 0.56902 7.97269 0.129957 38.7505 0.240428 3.15813 0.242782
30601.00 1501.95 99.703131 44.6625 0.124172 3.95971 0.189732 0.569036 7.97236 0.129963 38.7519 0.240444 3.1579 0.242251
30501.00 1501.64 99.695236 44.6627 0.124091 3.95917 0.189713 0.569054 7.97203 0.129969 38.7534 0.240461 3.15767 0.241712
30401.00 1501.34 99.687181 44.6629 0.124009 3.95861 0.189693 0.569072 7.97168 0.129975 38.755 0.240477 3.15742 0.241166
30301.00 1501.03 99.678964 44.6632 0.123926 3.95803 0.189672 0.569091 7.97134 0.129982 38.7565 0.240494 3.15717 0.240613
30201.00 1500.73 99.670582 44.6634 0.123841 3.95744 0.189651 0.569111 7.97099 0.129988 38.7581 0.240512 3.15691 0.240054
30101.00 1500.42 99.662032 44.6636 0.123756 3.95683 0.18963 0.569132 7.97063 0.129995 38.7597 0.24053 3.15665 0.239487
30001.00 1500.11 99.653312 44.6639 0.123669 3.9562 0.189608 0.569154 7.97027 0.130002 38.7614 0.240548 3.15637 0.238913
29901.00 1499.80 99.644417 44.6641 0.123581 3.95555 0.189586 0.569177 7.9699 0.130009 38.7631 0.240567 3.15609 0.238332
29801.00 1499.49 99.635346 44.6644 0.123492 3.95488 0.189563 0.569202 7.96952 0.130017 38.7648 0.240586 3.1558 0.237744
29701.00 1499.17 99.626096 44.6646 0.123402 3.9542 0.18954 0.569227 7.96914 0.130024 38.7666 0.240606 3.1555 0.237149
29601.00 1498.86 99.616662 44.6649 0.123311 3.95349 0.189516 0.569253 7.96876 0.130032 38.7684 0.240626 3.15519 0.236547
29501.00 1498.54 99.607043 44.6652 0.123219 3.95277 0.189492 0.569281 7.96837 0.13004 38.7702 0.240646 3.15487 0.235939
29401.00 1498.23 99.597235 44.6654 0.123125 3.95202 0.189467 0.56931 7.96797 0.130048 38.7721 0.240667 3.15454 0.235323
29301.00 1497.91 99.587234 44.6657 0.123031 3.95125 0.189442 0.56934 7.96757 0.130057 38.774 0.240688 3.1542 0.2347
29201.00 1497.59 99.577037 44.666 0.122935 3.95046 0.189417 0.569372 7.96716 0.130065 38.776 0.24071 3.15385 0.234071
29101.00 1497.27 99.566641 44.6663 0.122838 3.94965 0.189391 0.569405 7.96675 0.130074 38.778 0.240732 3.15348 0.233435
29001.00 1496.95 99.556042 44.6665 0.12274 3.94882 0.189365 0.569439 7.96633 0.130083 38.78 0.240755 3.15311 0.232791
28901.00 1496.62 99.545236 44.6668 0.122641 3.94796 0.189338 0.569474 7.9659 0.130093 38.7821 0.240778 3.15273 0.232142
28801.00 1496.30 99.534220 44.6671 0.122541 3.94708 0.18931 0.569511 7.96547 0.130102 38.7843 0.240802 3.15233 0.231485
28701.00 1495.97 99.522990 44.6674 0.12244 3.94617 0.189283 0.56955 7.96503 0.130112 38.7864 0.240826 3.15193 0.230822
28601.00 1495.64 99.511542 44.6677 0.122338 3.94524 0.189254 0.56959 7.96458 0.130122 38.7887 0.240851 3.15151 0.230152
28501.00 1495.31 99.499872 44.668 0.122234 3.94428 0.189225 0.569632 7.96413 0.130133 38.7909 0.240876 3.15108 0.229475
28401.00 1494.98 99.487976 44.6683 0.12213 3.9433 0.189196 0.569675 7.96368 0.130143 38.7932 0.240902 3.15063 0.228792
28301.00 1494.65 99.475850 44.6686 0.122024 3.94229 0.189166 0.56972 7.96321 0.130154 38.7956 0.240928 3.15017 0.228102
28201.00 1494.32 99.463490 44.6689 0.121917 3.94125 0.189136 0.569767 7.96274 0.130165 38.798 0.240955 3.1497 0.227406
28101.00 1493.98 99.450891 44.6693 0.12181 3.94018 0.189105 0.569815 7.96226 0.130177 38.8005 0.240982 3.14921 0.226703
28001.00 1493.64 99.438048 44.6696 0.121701 3.93908 0.189074 0.569866 7.96178 0.130189 38.803 0.24101 3.14871 0.225994
27901.00 1493.30 99.424958 44.6699 0.121591 3.93795 0.189042 0.569918 7.96129 0.130201 38.8056 0.241039 3.14819 0.225278
27801.00 1492.96 99.411615 44.6702 0.12148 3.9368 0.18901 0.569972 7.96079 0.130213 38.8082 0.241068 3.14766 0.224556
27701.00 1492.62 99.398016 44.6706 0.121367 3.93561 0.188977 0.570028 7.96029 0.130226 38.8109 0.241098 3.14711 0.223828
