Title: Depleted MORB Mantle of Workmann & Hart 2005

System Thermodynamic Data:
Pressure Temperature mass F phi S H V Cp dVdP*10^6 dVdT*10^6 fO2(absolute) fO2(absolute) rhol rhos viscosity aH2O chisqr
44001.00 1456.43 100.138999 0.0000000000000000 0.000000 257.287049 -1144523.212596 30.278199 125.288794 -19.920802 1471.697895 -5.603 -5.603 0.000000 3.307297 0.000 0 0.000
43901.00 1456.21 100.138999 0.0000000000000000 0.000000 257.287049 -1144826.004346 30.280151 125.295877 -19.927979 1471.627210 -5.608 -5.608 0.000000 3.307084 0.000 0 0.000
43801.00 1455.98 100.138999 0.0000000000000000 0.000000 257.287049 -1145128.815633 30.282106 125.302960 -19.935162 1471.556715 -5.613 -5.613 0.000000 3.306870 0.000 0 0.000
43701.00 1455.76 100.138999 0.0000000000000000 0.000000 257.287049 -1145431.646483 30.284064 125.310044 -19.942351 1471.486410 -5.618 -5.618 0.000000 3.306657 0.000 0 0.000
43601.00 1455.54 100.138999 0.0000000000000000 0.000000 257.287049 -1145734.496924 30.286025 125.317128 -19.949546 1471.416298 -5.623 -5.623 0.000000 3.306443 0.000 0 0.000
43501.00 1455.32 100.138999 0.0000000000000000 0.000000 257.287049 -1146037.366983 30.287988 125.324214 -19.956748 1471.346380 -5.628 -5.628 0.000000 3.306228 0.000 0 0.000
43401.00 1455.10 100.138999 0.0000000000000000 0.000000 257.287049 -1146340.256685 30.289953 125.331301 -19.963955 1471.276659 -5.632 -5.632 0.000000 3.306014 0.000 0 0.000
43301.00 1454.87 100.138999 0.0000000000000000 0.000000 257.287049 -1146643.166060 30.291922 125.338388 -19.971169 1471.207135 -5.637 -5.637 0.000000 3.305799 0.000 0 0.000
43201.00 1454.65 100.138999 0.0000000000000000 0.000000 257.287049 -1146946.095134 30.293893 125.345477 -19.978389 1471.137812 -5.642 -5.642 0.000000 3.305584 0.000 0 0.000
43101.00 1454.43 100.138999 0.0000000000000000 0.000000 257.287049 -1147249.043936 30.295867 125.352566 -19.985616 1471.068690 -5.647 -5.647 0.000000 3.305368 0.000 0 0.000
43001.00 1454.21 100.138999 0.0000000000000000 0.000000 257.287049 -1147552.012493 30.297844 125.359657 -19.992849 1470.999771 -5.652 -5.652 0.000000 3.305153 0.000 0 0.000
42901.00 1453.99 100.138999 0.0000000000000000 0.000000 257.287049 -1147855.000833 30.299824 125.366749 -20.000088 1470.931058 -5.657 -5.657 0.000000 3.304937 0.000 0 0.000
42801.00 1453.76 100.138999 0.0000000000000000 0.000000 257.287049 -1148158.008985 30.301807 125.373842 -20.007334 1470.862552 -5.662 -5.662 0.000000 3.304720 0.000 0 0.000
42701.00 1453.54 100.138999 0.0000000000000000 0.000000 257.287049 -1148461.036977 30.303792 125.380936 -20.014587 1470.794256 -5.667 -5.667 0.000000 3.304504 0.000 0 0.000
42601.00 1453.32 100.138999 0.0000000000000000 0.000000 257.287049 -1148764.084838 30.305781 125.388031 -20.021846 1470.726170 -5.673 -5.673 0.000000 3.304287 0.000 0 0.000
42501.00 1453.10 100.138999 0.0000000000000000 0.000000 257.287049 -1149067.152598 30.307772 125.395127 -20.029112 1470.658298 -5.678 -5.678 0.000000 3.304070 0.000 0 0.000
42401.00 1452.87 100.138999 0.0000000000000000 0.000000 257.287049 -1149370.240286 30.309766 125.402225 -20.036385 1470.590641 -5.683 -5.683 0.000000 3.303853 0.000 0 0.000
42301.00 1452.65 100.138999 0.0000000000000000 0.000000 257.287049 -1149673.347931 30.311763 125.409324 -20.043664 1470.523202 -5.688 -5.688 0.000000 3.303635 0.000 0 0.000
42201.00 1452.43 100.138999 0.0000000000000000 0.000000 257.287049 -1149976.475562 30.313763 125.416424 -20.050951 1470.455982 -5.693 -5.693 0.000000 3.303417 0.000 0 0.000
42101.00 1452.20 100.138999 0.0000000000000000 0.000000 257.287049 -1150279.623210 30.315767 125.423526 -20.058245 1470.388984 -5.698 -5.698 0.000000 3.303199 0.000 0 0.000
42001.00 1451.98 100.138999 0.0000000000000000 0.000000 257.287049 -1150582.790905 30.317773 125.430629 -20.065545 1470.322209 -5.703 -5.703 0.000000 3.302980 0.000 0 0.000
41901.00 1451.76 100.138999 0.0000000000000000 0.000000 257.287049 -1150885.978678 30.319782 125.437733 -20.072853 1470.255661 -5.708 -5.708 0.000000 3.302761 0.000 0 0.000
41801.00 1451.54 100.138999 0.0000000000000000 0.000000 257.287049 -1151189.186559 30.321795 125.444839 -20.080168 1470.189340 -5.714 -5.714 0.000000 3.302542 0.000 0 0.000
41701.00 1451.31 100.138999 0.0000000000000000 0.000000 257.287049 -1151492.414579 30.323810 125.451947 -20.087491 1470.123251 -5.719 -5.719 0.000000 3.302322 0.000 0 0.000
41601.00 1451.09 100.138999 0.0000000000000000 0.000000 257.287049 -1151795.662769 30.325829 125.459056 -20.094820 1470.057393 -5.724 -5.724 0.000000 3.302103 0.000 0 0.000
41501.00 1450.87 100.138999 0.0000000000000000 0.000000 257.287049 -1152098.931161 30.327850 125.466166 -20.102158 1469.991771 -5.729 -5.729 0.000000 3.301883 0.000 0 0.000
41401.00 1450.64 100.138999 0.0000000000000000 0.000000 257.287049 -1152402.219786 30.329875 125.473278 -20.109502 1469.926387 -5.735 -5.735 0.000000 3.301662 0.000 0 0.000
41301.00 1450.42 100.138999 0.0000000000000000 0.000000 257.287049 -1152705.528676 30.331903 125.480392 -20.116855 1469.861242 -5.740 -5.740 0.000000 3.301441 0.000 0 0.000
41201.00 1450.20 100.138999 0.0000000000000000 0.000000 257.287049 -1153008.857864 30.333935 125.487508 -20.124215 1469.796340 -5.745 -5.745 0.000000 3.301220 0.000 0 0.000
41101.00 1449.97 100.138999 0.0000000000000000 0.000000 257.287049 -1153312.207383 30.335969 125.494625 -20.131582 1469.731682 -5.750 -5.750 0.000000 3.300999 0.000 0 0.000
41001.00 1449.75 100.138999 0.0000000000000000 0.000000 257.287049 -1153615.577264 30.338007 125.501744 -20.138958 1469.667272 -5.756 -5.756 0.000000 3.300777 0.000 0 0.000
40901.00 1449.53 100.138999 0.0000000000000000 0.000000 257.287049 -1153918.967541 30.340049 125.508865 -20.146341 1469.603112 -5.761 -5.761 0.000000 3.300555 0.000 0 0.000
40801.00 1449.30 100.138999 0.0000000000000000 0.000000 257.287049 -1154222.378247 30.342093 125.515988 -20.153733 1469.539204 -5.766 -5.766 0.000000 3.300333 0.000 0 0.000
40701.00 1449.08 100.138999 0.0000000000000000 0.000000 257.287049 -1154525.809416 30.344141 125.523113 -20.161133 1469.475551 -5.772 -5.772 0.000000 3.300110 0.000 0 0.000
40601.00 1448.86 100.138999 0.0000000000000000 0.000000 257.287049 -1154829.261082 30.346193 125.530240 -20.168540 1469.412156 -5.777 -5.777 0.000000 3.299887 0.000 0 0.000
40501.00 1448.63 100.138999 0.0000000000000000 0.000000 257.287049 -1155132.733279 30.348247 125.537369 -20.175956 1469.349022 -5.783 -5.783 0.000000 3.299663 0.000 0 0.000
40401.00 1448.41 100.138999 0.0000000000000000 0.000000 257.287049 -1155436.226042 30.350306 125.544500 -20.183381 1469.286151 -5.788 -5.788 0.000000 3.299440 0.000 0 0.000
40301.00 1448.18 100.138999 0.0000000000000000 0.000000 257.287049 -1155739.739405 30.352367 125.551633 -20.190813 1469.223546 -5.793 -5.793 0.000000 3.299215 0.000 0 0.000
40201.00 1447.96 100.138999 0.0000000000000000 0.000000 257.287049 -1156043.273403 30.354433 125.558768 -20.198255 1469.161210 -5.799 -5.799 0.000000 3.298991 0.000 0 0.000
40101.00 1447.74 100.138999 0.0000000000000000 0.000000 257.287049 -1156346.828073 30.356502 125.565906 -20.205705 1469.099146 -5.804 -5.804 0.000000 3.298766 0.000 0 0.000
40001.00 1447.51 100.138999 0.0000000000000000 0.000000 257.287049 -1156650.403449 30.358574 125.573045 -20.213163 1469.037357 -5.810 -5.810 0.000000 3.298541 0.000 0 0.000
39901.00 1447.29 100.138999 0.0000000000000000 0.000000 257.287049 -1156953.999568 30.360650 125.580187 -20.220631 1468.975846 -5.815 -5.815 0.000000 3.298315 0.000 0 0.000
39801.00 1447.06 100.138999 0.0000000000000000 0.000000 257.287049 -1157257.616466 30.362730 125.587332 -20.228107 1468.914615 -5.821 -5.821 0.000000 3.298089 0.000 0 0.000
39701.00 1446.84 100.138999 0.0000000000000000 0.000000 257.287049 -1157561.254180 30.364813 125.594479 -20.235592 1468.853669 -5.826 -5.826 0.000000 3.297863 0.000 0 0.000
39601.00 1446.61 100.138999 0.0000000000000000 0.000000 257.287049 -1157864.912748 30.366901 125.601628 -20.243086 1468.793010 -5.832 -5.832 0.000000 3.297636 0.000 0 0.000
39501.00 1446.39 100.138999 0.0000000000000000 0.000000 257.287049 -1158168.592206 30.368992 125.608780 -20.250590 1468.732641 -5.838 -5.838 0.000000 3.297409 0.000 0 0.000
39401.00 1446.16 100.138999 0.0000000000000000 0.000000 257.287049 -1158472.292592 30.371086 125.615934 -20.258103 1468.672566 -5.843 -5.843 0.000000 3.297182 0.000 0 0.000
39301.00 1445.94 100.138999 0.0000000000000000 0.000000 257.287049 -1158776.013945 30.373185 125.623091 -20.265625 1468.612788 -5.849 -5.849 0.000000 3.296954 0.000 0 0.000
39201.00 1445.72 100.138999 0.0000000000000000 0.000000 257.287049 -1159079.756303 30.375287 125.630251 -20.273157 1468.553311 -5.854 -5.854 0.000000 3.296726 0.000 0 0.000
39101.00 1445.49 100.138999 0.0000000000000000 0.000000 257.287049 -1159383.519705 30.377394 125.637414 -20.280698 1468.494137 -5.860 -5.860 0.000000 3.296497 0.000 0 0.000
39001.00 1445.27 100.138999 0.0000000000000000 0.000000 257.287049 -1159687.304190 30.379504 125.644579 -20.288249 1468.435270 -5.866 -5.866 0.000000 3.296268 0.000 0 0.000
38901.00 1445.04 100.138999 0.0000000000000000 0.000000 257.287049 -1159991.109798 30.381618 125.651748 -20.295810 1468.376715 -5.871 -5.871 0.000000 3.296039 0.000 0 0.000
38801.00 1444.82 100.138999 0.0000000000000000 0.000000 257.287049 -1160294.936569 30.383737 125.658919 -20.303381 1468.318474 -5.877 -5.877 0.000000 3.295809 0.000 0 0.000
38701.00 1444.59 100.138999 0.0000000000000000 0.000000 257.287049 -1160598.784544 30.385859 125.666093 -20.310962 1468.260551 -5.883 -5.883 0.000000 3.295579 0.000 0 0.000
38601.00 1444.36 100.138999 0.0000000000000000 0.000000 257.287049 -1160902.653763 30.387985 125.673271 -20.318553 1468.202950 -5.889 -5.889 0.000000 3.295348 0.000 0 0.000
38501.00 1444.14 100.138999 0.0000000000000000 0.000000 257.287049 -1161206.544267 30.390116 125.680451 -20.326154 1468.145675 -5.894 -5.894 0.000000 3.295117 0.000 0 0.000
38401.00 1443.91 100.138999 0.0000000000000000 0.000000 257.287049 -1161510.456099 30.392251 125.687635 -20.333765 1468.088729 -5.900 -5.900 0.000000 3.294886 0.000 0 0.000
38301.00 1443.69 100.138999 0.0000000000000000 0.000000 257.287049 -1161814.389300 30.394390 125.694822 -20.341388 1468.032117 -5.906 -5.906 0.000000 3.294654 0.000 0 0.000
38201.00 1443.46 100.138999 0.0000000000000000 0.000000 257.287049 -1162118.343914 30.396533 125.702012 -20.349020 1467.975843 -5.912 -5.912 0.000000 3.294422 0.000 0 0.000
38101.00 1443.24 100.138999 0.0000000000000000 0.000000 257.287049 -1162422.319982 30.398681 125.709206 -20.356664 1467.919910 -5.918 -5.918 0.000000 3.294189 0.000 0 0.000
38001.00 1443.01 100.138999 0.0000000000000000 0.000000 257.287049 -1162726.317548 30.400833 125.716403 -20.364318 1467.864323 -5.924 -5.924 0.000000 3.293956 0.000 0 0.000
37901.00 1442.78 100.138999 0.0000000000000000 0.000000 257.287049 -1163030.336657 30.402989 125.723604 -20.371984 1467.809086 -5.929 -5.929 0.000000 3.293722 0.000 0 0.000
37801.00 1442.56 100.138999 0.0000000000000000 0.000000 257.287049 -1163334.377352 30.405150 125.730809 -20.379661 1467.754204 -5.935 -5.935 0.000000 3.293488 0.000 0 0.000
37701.00 1442.33 100.138999 0.0000000000000000 0.000000 257.287049 -1163638.439678 30.407316 125.738017 -20.387349 1467.699680 -5.941 -5.941 0.000000 3.293254 0.000 0 0.000
37601.00 1442.11 100.138999 0.0000000000000000 0.000000 257.287049 -1163942.523682 30.409486 125.745229 -20.395048 1467.645520 -5.947 -5.947 0.000000 3.293019 0.000 0 0.000
37501.00 1441.88 100.138999 0.0000000000000000 0.000000 257.287049 -1164246.629408 30.411660 125.752445 -20.402759 1467.591728 -5.953 -5.953 0.000000 3.292783 0.000 0 0.000
37401.00 1441.65 100.138999 0.0000000000000000 0.000000 257.287049 -1164550.756902 30.413839 125.759665 -20.410481 1467.538308 -5.959 -5.959 0.000000 3.292547 0.000 0 0.000
37301.00 1441.43 100.138999 0.0000000000000000 0.000000 257.287049 -1164854.906213 30.416023 125.766889 -20.418216 1467.485265 -5.965 -5.965 0.000000 3.292311 0.000 0 0.000
37201.00 1441.20 100.138999 0.0000000000000000 0.000000 257.287049 -1165159.077386 30.418212 125.774117 -20.425962 1467.432605 -5.971 -5.971 0.000000 3.292074 0.000 0 0.000
37101.00 1440.97 100.138999 0.0000000000000000 0.000000 257.287049 -1165463.270470 30.420406 125.781350 -20.433721 1467.380331 -5.977 -5.977 0.000000 3.291836 0.000 0 0.000
37001.00 1440.75 100.138999 0.0000000000000000 0.000000 257.287049 -1165767.485513 30.422604 125.788586 -20.441492 1467.328449 -5.984 -5.984 0.000000 3.291599 0.000 0 0.000
36901.00 1440.52 100.138999 0.0000000000000000 0.000000 257.287049 -1166071.722564 30.424807 125.795827 -20.449275 1467.276965 -5.990 -5.990 0.000000 3.291360 0.000 0 0.000
36801.00 1440.29 100.138999 0.0000000000000000 0.000000 257.287049 -1166375.981673 30.427015 125.803073 -20.457071 1467.225882 -5.996 -5.996 0.000000 3.291121 0.000 0 0.000
36701.00 1440.06 100.138999 0.0000000000000000 0.000000 257.287049 -1166680.262889 30.429229 125.810323 -20.464880 1467.175207 -6.002 -6.002 0.000000 3.290882 0.000 0 0.000
36601.00 1439.84 100.138999 0.0000000000000000 0.000000 257.287049 -1166984.566263 30.431447 125.817578 -20.472701 1467.124946 -6.008 -6.008 0.000000 3.290642 0.000 0 0.000
36501.00 1439.61 100.138999 0.0000000000000000 0.000000 257.287049 -1167288.891847 30.433671 125.824837 -20.480536 1467.075102 -6.014 -6.014 0.000000 3.290402 0.000 0 0.000
36401.00 1439.38 100.138999 0.0000000000000000 0.000000 257.287049 -1167593.239692 30.435899 125.832102 -20.488384 1467.025683 -6.021 -6.021 0.000000 3.290161 0.000 0 0.000
36301.00 1439.15 100.138999 0.0000000000000000 0.000000 257.287049 -1167897.609851 30.438133 125.839371 -20.496245 1466.976694 -6.027 -6.027 0.000000 3.289919 0.000 0 0.000
36201.00 1438.93 100.138999 0.0000000000000000 0.000000 257.287049 -1168202.002376 30.440373 125.846646 -20.504120 1466.928140 -6.033 -6.033 0.000000 3.289677 0.000 0 0.000
36101.00 1438.70 100.138999 0.0000000000000000 0.000000 257.287049 -1168506.417321 30.442617 125.853925 -20.512008 1466.880028 -6.039 -6.039 0.000000 3.289435 0.000 0 0.000
36001.00 1438.47 100.138999 0.0000000000000000 0.000000 257.287049 -1168810.854742 30.444868 125.861210 -20.519911 1466.832363 -6.046 -6.046 0.000000 3.289191 0.000 0 0.000
35901.00 1438.24 100.138999 0.0000000000000000 0.000000 257.287049 -1169115.314691 30.447123 125.868501 -20.527828 1466.785153 -6.052 -6.052 0.000000 3.288948 0.000 0 0.000
35801.00 1438.01 100.138999 0.0000000000000000 0.000000 257.287049 -1169419.797226 30.449385 125.875796 -20.535759 1466.738402 -6.059 -6.059 0.000000 3.288704 0.000 0 0.000
35701.00 1437.78 100.138999 0.0000000000000000 0.000000 257.287049 -1169724.302403 30.451652 125.883098 -20.543704 1466.692118 -6.065 -6.065 0.000000 3.288459 0.000 0 0.000
35601.00 1437.55 100.138999 0.0000000000000000 0.000000 257.287049 -1170028.830278 30.453924 125.890405 -20.551665 1466.646307 -6.071 -6.071 0.000000 3.288213 0.000 0 0.000
35501.00 1437.33 100.138999 0.0000000000000000 0.000000 257.287049 -1170333.380910 30.456203 125.897718 -20.559640 1466.600976 -6.078 -6.078 0.000000 3.287967 0.000 0 0.000
35401.00 1437.10 100.138999 0.0000000000000000 0.000000 257.287049 -1170637.954356 30.458487 125.905037 -20.567630 1466.556132 -6.084 -6.084 0.000000 3.287721 0.000 0 0.000
35301.00 1436.87 100.138999 0.0000000000000000 0.000000 257.287049 -1170942.550676 30.460778 125.912362 -20.575635 1466.511782 -6.091 -6.091 0.000000 3.287473 0.000 0 0.000
35201.00 1436.64 100.138999 0.0000000000000000 0.000000 257.287049 -1171247.169930 30.463074 125.919693 -20.583657 1466.467932 -6.097 -6.097 0.000000 3.287226 0.000 0 0.000
35101.00 1436.41 100.138999 0.0000000000000000 0.000000 257.287049 -1171551.812179 30.465377 125.927031 -20.591693 1466.424590 -6.104 -6.104 0.000000 3.286977 0.000 0 0.000
35001.00 1436.18 100.138999 0.0000000000000000 0.000000 257.287049 -1171856.477484 30.467685 125.934375 -20.599746 1466.381764 -6.111 -6.111 0.000000 3.286728 0.000 0 0.000
34901.00 1435.95 100.138999 0.0000000000000000 0.000000 257.287049 -1172161.165907 30.470000 125.941726 -20.607815 1466.339461 -6.117 -6.117 0.000000 3.286478 0.000 0 0.000
34801.00 1435.72 100.138999 0.0000000000000000 0.000000 257.287049 -1172465.877512 30.472322 125.949084 -20.615900 1466.297688 -6.124 -6.124 0.000000 3.286228 0.000 0 0.000
34701.00 1435.49 100.138999 0.0000000000000000 0.000000 257.287049 -1172770.612362 30.474649 125.956448 -20.624002 1466.256455 -6.131 -6.131 0.000000 3.285977 0.000 0 0.000
34601.00 1435.26 100.138999 0.0000000000000000 0.000000 257.287049 -1173075.370523 30.476984 125.963819 -20.632121 1466.215768 -6.137 -6.137 0.000000 3.285725 0.000 0 0.000
34501.00 1435.03 100.138999 0.0000000000000000 0.000000 257.287049 -1173380.152060 30.479325 125.971198 -20.640257 1466.175636 -6.144 -6.144 0.000000 3.285473 0.000 0 0.000
34401.00 1434.80 100.138999 0.0000000000000000 0.000000 257.287049 -1173684.957039 30.481672 125.978584 -20.648410 1466.136067 -6.151 -6.151 0.000000 3.285220 0.000 0 0.000
34301.00 1434.57 100.138999 0.0000000000000000 0.000000 257.287049 -1173989.785529 30.484027 125.985977 -20.656580 1466.097070 -6.158 -6.158 0.000000 3.284966 0.000 0 0.000
34201.00 1434.34 100.138999 0.0000000000000000 0.000000 257.287049 -1174294.637597 30.486388 125.993378 -20.664769 1466.058655 -6.164 -6.164 0.000000 3.284712 0.000 0 0.000
34101.00 1434.10 100.138999 0.0000000000000000 0.000000 257.287049 -1174599.513312 30.488756 126.000787 -20.672976 1466.020828 -6.171 -6.171 0.000000 3.284457 0.000 0 0.000
34001.00 1433.87 100.138999 0.0000000000000000 0.000000 257.287049 -1174904.412746 30.491132 126.008204 -20.681201 1465.983601 -6.178 -6.178 0.000000 3.284201 0.000 0 0.000
33901.00 1433.64 100.138999 0.0000000000000000 0.000000 257.287049 -1175209.335969 30.493514 126.015629 -20.689444 1465.946981 -6.185 -6.185 0.000000 3.283944 0.000 0 0.000
33801.00 1433.41 100.138999 0.0000000000000000 0.000000 257.287049 -1175514.283054 30.495904 126.023062 -20.697707 1465.910980 -6.192 -6.192 0.000000 3.283687 0.000 0 0.000
33701.00 1433.18 100.138999 0.0000000000000000 0.000000 257.287049 -1175819.254074 30.498301 126.030504 -20.705988 1465.875606 -6.199 -6.199 0.000000 3.283429 0.000 0 0.000
33601.00 1432.94 100.138999 0.0000000000000000 0.000000 257.287049 -1176124.249103 30.500706 126.037954 -20.714290 1465.840869 -6.206 -6.206 0.000000 3.283170 0.000 0 0.000
33501.00 1432.71 100.138999 0.0000000000000000 0.000000 257.287049 -1176429.268217 30.503118 126.045414 -20.722610 1465.806780 -6.213 -6.213 0.000000 3.282910 0.000 0 0.000
33401.00 1432.48 100.138999 0.0000000000000000 0.000000 257.287049 -1176734.311492 30.505538 126.052882 -20.730951 1465.773350 -6.220 -6.220 0.000000 3.282650 0.000 0 0.000
33301.00 1432.25 100.138999 0.0000000000000000 0.000000 257.287049 -1177039.379006 30.507966 126.060359 -20.739313 1465.740588 -6.227 -6.227 0.000000 3.282389 0.000 0 0.000
33201.00 1432.01 100.138999 0.0000000000000000 0.000000 257.287049 -1177344.470837 30.510402 126.067846 -20.747695 1465.708505 -6.235 -6.235 0.000000 3.282127 0.000 0 0.000
33101.00 1431.78 100.138999 0.0000000000000000 0.000000 257.287049 -1177649.587067 30.512846 126.075342 -20.756098 1465.677114 -6.242 -6.242 0.000000 3.281864 0.000 0 0.000
33001.00 1431.55 100.138999 0.0000000000000000 0.000000 257.287049 -1177954.727775 30.515297 126.082849 -20.764522 1465.646425 -6.249 -6.249 0.000000 3.281600 0.000 0 0.000
32901.00 1431.31 100.138999 0.0000000000000000 0.000000 257.287049 -1178259.893044 30.517758 126.090365 -20.772968 1465.616449 -6.256 -6.256 0.000000 3.281335 0.000 0 0.000
32801.00 1431.08 100.138999 0.0000000000000000 0.000000 257.287049 -1178565.082959 30.520226 126.097891 -20.781436 1465.587200 -6.264 -6.264 0.000000 3.281070 0.000 0 0.000
