Title: Depleted MORB Mantle of Workmann & Hart 2005

Liquid Composition:
Pressure Temperature mass SiO2 TiO2 Al2O3 Fe2O3 Cr2O3 FeO MnO MgO NiO CaO Na2O 
44001.00 1451.02 0.000000 ---
43901.00 1450.80 0.000000 ---
43801.00 1450.58 0.000000 ---
43701.00 1450.36 0.000000 ---
43601.00 1450.14 0.000000 ---
43501.00 1449.91 0.000000 ---
43401.00 1449.69 0.000000 ---
43301.00 1449.47 0.000000 ---
43201.00 1449.25 0.000000 ---
43101.00 1449.03 0.000000 ---
43001.00 1448.81 0.000000 ---
42901.00 1448.59 0.000000 ---
42801.00 1448.37 0.000000 ---
42701.00 1448.15 0.000000 ---
42601.00 1447.92 0.000000 ---
42501.00 1447.70 0.000000 ---
42401.00 1447.48 0.000000 ---
42301.00 1447.26 0.000000 ---
42201.00 1447.04 0.000000 ---
42101.00 1446.82 0.000000 ---
42001.00 1446.60 0.000000 ---
41901.00 1446.37 0.000000 ---
41801.00 1446.15 0.000000 ---
41701.00 1445.93 0.000000 ---
41601.00 1445.71 0.000000 ---
41501.00 1445.49 0.000000 ---
41401.00 1445.26 0.000000 ---
41301.00 1445.04 0.000000 ---
41201.00 1444.82 0.000000 ---
41101.00 1444.60 0.000000 ---
41001.00 1444.38 0.000000 ---
40901.00 1444.15 0.000000 ---
40801.00 1443.93 0.000000 ---
40701.00 1443.71 0.000000 ---
40601.00 1443.49 0.000000 ---
40501.00 1443.26 0.000000 ---
40401.00 1443.04 0.000000 ---
40301.00 1442.82 0.000000 ---
40201.00 1442.60 0.000000 ---
40101.00 1442.37 0.000000 ---
40001.00 1442.15 0.000000 ---
39901.00 1441.93 0.000000 ---
39801.00 1441.70 0.000000 ---
39701.00 1441.48 0.000000 ---
39601.00 1441.26 0.000000 ---
39501.00 1441.03 0.000000 ---
39401.00 1440.81 0.000000 ---
39301.00 1440.59 0.000000 ---
39201.00 1440.36 0.000000 ---
39101.00 1440.14 0.000000 ---
39001.00 1439.92 0.000000 ---
38901.00 1439.69 0.000000 ---
38801.00 1439.47 0.000000 ---
38701.00 1439.25 0.000000 ---
38601.00 1439.02 0.000000 ---
38501.00 1438.80 0.000000 ---
38401.00 1438.57 0.000000 ---
38301.00 1438.35 0.000000 ---
38201.00 1438.12 0.000000 ---
38101.00 1437.90 0.000000 ---
38001.00 1437.67 0.000000 ---
37901.00 1437.45 0.000000 ---
37801.00 1437.23 0.000000 ---
37701.00 1437.00 0.000000 ---
37601.00 1436.78 0.000000 ---
37501.00 1436.55 0.000000 ---
37401.00 1436.33 0.000000 ---
37301.00 1436.10 0.000000 ---
37201.00 1435.87 0.000000 ---
37101.00 1435.65 0.000000 ---
37001.00 1435.42 0.000000 ---
36901.00 1435.20 0.000000 ---
36801.00 1434.97 0.000000 ---
36701.00 1434.75 0.000000 ---
36601.00 1434.52 0.000000 ---
36501.00 1434.29 0.000000 ---
36401.00 1434.07 0.000000 ---
36301.00 1433.84 0.000000 ---
36201.00 1433.61 0.000000 ---
36101.00 1433.39 0.000000 ---
36001.00 1433.16 0.000000 ---
35901.00 1432.93 0.000000 ---
35801.00 1432.71 0.000000 ---
35701.00 1432.48 0.000000 ---
35601.00 1432.25 0.000000 ---
35501.00 1432.02 0.000000 ---
35401.00 1431.80 0.000000 ---
35301.00 1431.57 0.000000 ---
35201.00 1431.34 0.000000 ---
35101.00 1431.11 0.000000 ---
35001.00 1430.88 0.000000 ---
34901.00 1430.65 0.000000 ---
34801.00 1430.43 0.000000 ---
34701.00 1430.20 0.000000 ---
34601.00 1429.97 0.000000 ---
34501.00 1429.74 0.000000 ---
34401.00 1429.51 0.000000 ---
34301.00 1429.28 0.000000 ---
34201.00 1429.05 0.000000 ---
34101.00 1428.82 0.000000 ---
34001.00 1428.59 0.000000 ---
33901.00 1428.36 0.000000 ---
33801.00 1428.13 0.000000 ---
33701.00 1427.90 0.000000 ---
33601.00 1427.67 0.000000 ---
33501.00 1427.44 0.000000 ---
33401.00 1427.21 0.000000 ---
33301.00 1426.98 0.000000 ---
33201.00 1426.74 0.000000 ---
33101.00 1426.51 0.000000 ---
33001.00 1426.28 0.000000 ---
32901.00 1426.05 0.000000 ---
32801.00 1425.82 0.000000 ---
32701.00 1425.58 0.000000 ---
32601.00 1425.35 0.000000 ---
32501.00 1425.12 0.000000 ---
32401.00 1424.88 0.000000 ---
32301.00 1424.65 0.000000 ---
32201.00 1424.42 0.000000 ---
32101.00 1424.18 0.000000 ---
32001.00 1423.95 0.000000 ---
31901.00 1423.71 0.000000 ---
31801.00 1423.48 0.000000 ---
31701.00 1423.24 0.000000 ---
31601.00 1423.01 0.000000 ---
31501.00 1422.77 0.000000 ---
31401.00 1422.54 0.000000 ---
31301.00 1422.30 0.000000 ---
31201.00 1422.07 0.000000 ---
31101.00 1421.83 0.000000 ---
31001.00 1421.59 0.000000 ---
30901.00 1421.35 0.000000 ---
30801.00 1421.12 0.000000 ---
30701.00 1420.88 0.000000 ---
30601.00 1420.64 0.000000 ---
30501.00 1420.40 0.000000 ---
30401.00 1420.16 0.000000 ---
30301.00 1419.92 0.000000 ---
30201.00 1419.68 0.000000 ---
30101.00 1419.44 0.000000 ---
30001.00 1419.20 0.000000 ---
29901.00 1418.96 0.000000 ---
29801.00 1418.72 0.000000 ---
29701.00 1418.48 0.000000 ---
29601.00 1418.24 0.000000 ---
29501.00 1418.00 0.000000 ---
29401.00 1417.76 0.000000 ---
29301.00 1417.51 0.000000 ---
29201.00 1417.27 0.000000 ---
29101.00 1417.03 0.000000 ---
29001.00 1416.78 0.000000 ---
28901.00 1416.54 0.000000 ---
28801.00 1416.29 0.000000 ---
28701.00 1416.05 0.000000 ---
28601.00 1415.80 0.000000 ---
28501.00 1415.56 0.000000 ---
28401.00 1415.31 0.000000 ---
28301.00 1415.06 0.000000 ---
28201.00 1414.81 0.000000 ---
28101.00 1414.57 0.000000 ---
28001.00 1414.32 0.000000 ---
27901.00 1414.07 0.000000 ---
27801.00 1413.82 0.000000 ---
27701.00 1413.57 0.000000 ---
27601.00 1413.32 0.000000 ---
27501.00 1413.07 0.000000 ---
27401.00 1412.81 0.000000 ---
27301.00 1412.56 0.000000 ---
27201.00 1412.31 0.000000 ---
27101.00 1412.05 0.000000 ---
27001.00 1411.80 0.000000 ---
26901.00 1411.54 0.000000 ---
26801.00 1411.29 0.000000 ---
26701.00 1411.03 0.000000 ---
26601.00 1410.78 0.000000 ---
26501.00 1410.52 0.000000 ---
26401.00 1410.26 0.000000 ---
26301.00 1410.00 0.000000 ---
26201.00 1409.74 0.000000 ---
26101.00 1409.48 0.000000 ---
26001.00 1409.22 0.000000 ---
25901.00 1408.96 0.000000 ---
25801.00 1408.69 0.000000 ---
25701.00 1408.43 0.000000 ---
25601.00 1408.16 0.000000 ---
25501.00 1407.90 0.000000 ---
25401.00 1407.63 0.000000 ---
25301.00 1407.36 0.000000 ---
25201.00 1407.10 0.000000 ---
25101.00 1406.83 0.000000 ---
25001.00 1406.56 0.000000 ---
24901.00 1406.28 0.000000 ---
24801.00 1406.01 0.000000 ---
24701.00 1405.74 0.000000 ---
24601.00 1405.46 0.000000 ---
24501.00 1405.19 0.000000 ---
24401.00 1404.91 0.000000 ---
24301.00 1404.63 0.000000 ---
24201.00 1404.35 0.000000 ---
24101.00 1404.07 0.000000 ---
24001.00 1403.79 0.000000 ---
23901.00 1403.51 0.000000 ---
23801.00 1403.22 0.000000 ---
23701.00 1402.93 0.000000 ---
23601.00 1402.65 0.000000 ---
23501.00 1402.36 0.000000 ---
23401.00 1402.07 0.000000 ---
23301.00 1401.77 0.000000 ---
23201.00 1401.48 0.000000 ---
23101.00 1401.18 0.000000 ---
23001.00 1400.89 0.000000 ---
22901.00 1400.59 0.000000 ---
22801.00 1400.28 0.000000 ---
22701.00 1399.98 0.000000 ---
22601.00 1399.67 0.000000 ---
22501.00 1399.37 0.000000 ---
22401.00 1399.06 0.000000 ---
22301.00 1398.74 0.000000 ---
22201.00 1398.43 0.000000 ---
22101.00 1398.11 0.000000 ---
22001.00 1397.79 0.000000 ---
21901.00 1397.47 0.000000 ---
21801.00 1397.15 0.000000 ---
21701.00 1396.82 0.000000 ---
21601.00 1396.49 0.000000 ---
21501.00 1396.15 0.000000 ---
21401.00 1395.81 0.000000 ---
21301.00 1395.47 0.000000 ---
21201.00 1395.13 0.000000 ---
21101.00 1394.85 0.000000 ---
21001.00 1394.64 0.000000 ---
20901.00 1394.43 0.000000 ---
20801.00 1394.22 0.000000 ---
20701.00 1394.01 0.000000 ---
20601.00 1393.80 0.000000 ---
20501.00 1393.59 0.000000 ---
20401.00 1393.38 0.000000 ---
20301.00 1393.17 0.000000 ---
20201.00 1392.96 0.000000 ---
20101.00 1392.75 0.000000 ---
20001.00 1392.54 0.000000 ---
19901.00 1392.33 0.000000 ---
19801.00 1392.11 0.000000 ---
19701.00 1391.90 0.000000 ---
19601.00 1391.69 0.000000 ---
19501.00 1391.48 0.000000 ---
19401.00 1391.27 0.000000 ---
19301.00 1391.06 0.000000 ---
19201.00 1390.84 0.000000 ---
19101.00 1390.63 0.000000 ---
19001.00 1390.42 0.000000 ---
18901.00 1390.09 0.028222 46.2406 0.858309 15.414 0.1667 0.27676 8.21056 0.0333771 13.8332 0.0198644 5.50606 9.44052
18801.00 1389.74 0.061955 46.2836 0.857593 15.4327 0.168318 0.274059 8.19441 0.0330554 13.8212 0.0196669 5.55055 9.36479
18701.00 1389.38 0.096198 46.3264 0.856883 15.4513 0.169965 0.27136 8.17837 0.0327349 13.8093 0.0194702 5.59551 9.28868
18601.00 1389.03 0.130965 46.3692 0.856178 15.4696 0.171641 0.268665 8.16243 0.0324158 13.7975 0.0192743 5.64093 9.21221
18501.00 1388.67 0.166274 46.4118 0.855479 15.4877 0.173347 0.265974 8.1466 0.0320979 13.7857 0.0190793 5.68683 9.13538
18401.00 1388.31 0.202142 46.4543 0.854785 15.5056 0.175083 0.263286 8.13088 0.0317812 13.7741 0.0188851 5.73321 9.05819
18301.00 1387.95 0.238584 46.4966 0.854096 15.5233 0.17685 0.260603 8.11526 0.0314659 13.7625 0.0186918 5.78006 8.98065
18201.00 1387.59 0.275620 46.5388 0.853412 15.5407 0.178649 0.257926 8.09975 0.0311519 13.7509 0.0184994 5.82741 8.90276
18101.00 1387.22 0.313268 46.5808 0.852732 15.558 0.18048 0.255253 8.08434 0.0308392 13.7395 0.0183078 5.87524 8.82453
18001.00 1386.86 0.351548 46.6227 0.852056 15.575 0.182344 0.252586 8.06904 0.0305279 13.7281 0.0181172 5.92356 8.74596
17901.00 1386.49 0.390478 46.6644 0.851385 15.5919 0.184241 0.249925 8.05383 0.0302178 13.7167 0.0179274 5.97239 8.66706
17801.00 1386.12 0.430081 46.706 0.850717 15.6085 0.186172 0.247272 8.03873 0.0299091 13.7055 0.0177384 6.02171 8.58783
17701.00 1385.74 0.470378 46.7474 0.850052 15.6248 0.188138 0.244625 8.02373 0.0296018 13.6943 0.0175504 6.07153 8.50828
17601.00 1385.37 0.511390 46.7886 0.84939 15.641 0.190139 0.241986 8.00882 0.0292958 13.6831 0.0173633 6.12186 8.42842
17501.00 1384.99 0.553142 46.8296 0.84873 15.6569 0.192176 0.239355 7.99401 0.0289912 13.6721 0.0171771 6.1727 8.34825
17401.00 1384.61 0.595657 46.8705 0.848072 15.6726 0.19425 0.236732 7.9793 0.028688 13.661 0.0169918 6.22405 8.26777
17301.00 1384.23 0.638960 46.9112 0.847415 15.6881 0.196361 0.234118 7.96468 0.0283861 13.65 0.0168074 6.27591 8.18701
17201.00 1383.85 0.683077 46.9516 0.846759 15.7034 0.19851 0.231514 7.95014 0.0280857 13.6391 0.0166239 6.32829 8.10595
17101.00 1383.46 0.728036 46.9919 0.846104 15.7184 0.200698 0.22892 7.9357 0.0277867 13.6282 0.0164413 6.38119 8.02462
17001.00 1383.07 0.773862 47.032 0.845448 15.7333 0.202924 0.226337 7.92134 0.0274891 13.6173 0.0162597 6.43461 7.94302
16901.00 1382.68 0.820586 47.0719 0.844791 15.7478 0.20519 0.223764 7.90706 0.0271929 13.6065 0.016079 6.48854 7.86116
16801.00 1382.29 0.868238 47.1116 0.844132 15.7622 0.207497 0.221203 7.89286 0.0268981 13.5956 0.0158992 6.543 7.77905
16701.00 1381.89 0.916848 47.1511 0.84347 15.7763 0.209845 0.218654 7.87873 0.0266048 13.5848 0.0157204 6.59798 7.6967
16601.00 1381.49 0.966448 47.1904 0.842806 15.7903 0.212234 0.216118 7.86468 0.026313 13.5741 0.0155425 6.65349 7.61411
16501.00 1381.09 1.017073 47.2295 0.842137 15.8039 0.214665 0.213595 7.85069 0.0260226 13.5633 0.0153655 6.70952 7.5313
16401.00 1380.68 1.052744 47.2683 0.841468 15.8174 0.21714 0.211081 7.8368 0.0257337 13.5525 0.0151896 6.76611 7.44822
16301.00 1380.27 1.052748 47.3068 0.840809 15.8306 0.219664 0.208571 7.82309 0.0254462 13.5419 0.0150145 6.82334 7.36474
16201.00 1379.86 1.052759 47.345 0.84016 15.8435 0.222239 0.206064 7.80955 0.0251602 13.5314 0.0148405 6.88122 7.28086
16101.00 1379.45 1.052778 47.3827 0.839522 15.8562 0.224864 0.203561 7.7962 0.0248756 13.521 0.0146674 6.93977 7.19658
16001.00 1379.04 1.052805 47.4201 0.838893 15.8687 0.227542 0.201061 7.78302 0.0245925 13.5107 0.0144953 6.99897 7.11191
15901.00 1378.62 1.052840 47.4571 0.838274 15.8808 0.230272 0.198566 7.77002 0.0243109 13.5006 0.0143241 7.05885 7.02685
15801.00 1378.21 1.052883 47.4937 0.837665 15.8928 0.233058 0.196076 7.7572 0.0240308 13.4905 0.0141539 7.11941 6.94141
15701.00 1377.79 1.052935 47.5299 0.837065 15.9044 0.235898 0.193592 7.74456 0.0237522 13.4806 0.0139847 7.18065 6.85559
15601.00 1377.37 1.052997 47.5657 0.836475 15.9158 0.238796 0.191113 7.7321 0.0234751 13.4707 0.0138165 7.24258 6.7694
15501.00 1376.95 1.053068 47.6011 0.835894 15.9269 0.241751 0.18864 7.71981 0.0231994 13.461 0.0136493 7.3052 6.68284
15401.00 1376.52 1.053149 47.636 0.835321 15.9378 0.244766 0.186174 7.70771 0.0229253 13.4513 0.013483 7.36853 6.59592
15301.00 1376.10 1.053241 47.6706 0.834757 15.9484 0.247841 0.183714 7.69578 0.0226527 13.4417 0.0133178 7.43257 6.50865
15201.00 1375.67 1.053343 47.7046 0.834201 15.9588 0.250977 0.181263 7.68402 0.0223817 13.4323 0.0131535 7.49732 6.42103
15101.00 1375.24 1.053457 47.7383 0.833653 15.9688 0.254176 0.178819 7.67245 0.0221121 13.4229 0.0129903 7.56278 6.33307
15001.00 1374.81 1.053583 47.7714 0.833112 15.9786 0.257439 0.176383 7.66104 0.0218441 13.4135 0.012828 7.62897 6.24478
14901.00 1374.37 1.053721 47.8041 0.832578 15.9882 0.260767 0.173956 7.64981 0.0215776 13.4043 0.0126668 7.69589 6.15616
14801.00 1373.93 1.053872 47.8364 0.83205 15.9974 0.264161 0.171539 7.63875 0.0213127 13.3951 0.0125065 7.76354 6.06723
14701.00 1373.49 1.054037 47.8682 0.831528 16.0064 0.267622 0.169132 7.62785 0.0210494 13.386 0.0123473 7.83192 5.978
14601.00 1373.05 1.054215 47.8995 0.831011 16.0151 0.271152 0.166734 7.61712 0.0207876 13.3769 0.0121891 7.90104 5.88846
14501.00 1372.61 1.054408 47.9303 0.830498 16.0236 0.274751 0.164348 7.60656 0.0205274 13.3679 0.0120319 7.97091 5.79864
14401.00 1372.16 1.054617 47.9606 0.829988 16.0318 0.278422 0.161972 7.59615 0.0202687 13.3589 0.0118757 8.04152 5.70854
14301.00 1371.71 1.054841 47.9905 0.829481 16.0397 0.282164 0.159609 7.5859 0.0200117 13.3499 0.0117205 8.11287 5.61818
14201.00 1371.26 1.055082 48.0198 0.828976 16.0473 0.285979 0.157257 7.5758 0.0197562 13.341 0.0115664 8.18498 5.52756
14101.00 1370.80 1.055341 48.0487 0.828471 16.0547 0.289868 0.154919 7.56585 0.0195023 13.332 0.0114133 8.25783 5.4367
14001.00 1370.34 1.055618 48.0771 0.827966 16.0618 0.293832 0.152593 7.55604 0.01925 13.3231 0.0112612 8.33144 5.34561
13901.00 1369.88 1.055913 48.105 0.82746 16.0686 0.297871 0.150282 7.54637 0.0189994 13.3142 0.0111101 8.40579 5.25431
13801.00 1369.42 1.056229 48.1324 0.82695 16.0752 0.301988 0.147985 7.53683 0.0187504 13.3053 0.0109601 8.4809 5.16281
13701.00 1368.95 1.056565 48.1593 0.826437 16.0815 0.306182 0.145703 7.52742 0.0185029 13.2963 0.0108112 8.55675 5.07113
13601.00 1368.48 1.056922 48.1857 0.825917 16.0875 0.310454 0.143436 7.51814 0.0182572 13.2873 0.0106632 8.63335 4.97927
13501.00 1368.00 1.057303 48.2116 0.82539 16.0933 0.314806 0.141185 7.50896 0.018013 13.2782 0.0105164 8.7107 4.88726
13401.00 1367.53 1.057707 48.2371 0.824854 16.0988 0.319237 0.138951 7.49989 0.0177706 13.2691 0.0103706 8.78878 4.79511
13301.00 1367.04 1.058135 48.2621 0.824307 16.1041 0.323748 0.136733 7.49092 0.0175297 13.26 0.0102258 8.8676 4.70285
13201.00 1366.56 1.058590 48.2866 0.823747 16.1091 0.328339 0.134534 7.48204 0.0172906 13.2507 0.0100821 8.94715 4.61049
13101.00 1366.07 1.059071 48.3106 0.823172 16.1138 0.333012 0.132353 7.47324 0.0170531 13.2413 0.00993946 9.02742 4.51804
13001.00 1365.57 1.059581 48.3343 0.82258 16.1183 0.337765 0.13019 7.46451 0.0168173 13.2319 0.00979789 9.10841 4.42554
12901.00 1365.08 1.060120 48.3574 0.821968 16.1225 0.3426 0.128048 7.45584 0.0165832 13.2222 0.0096574 9.19011 4.33299
12801.00 1364.57 1.060691 48.3802 0.821334 16.1265 0.347515 0.125925 7.44723 0.0163508 13.2125 0.00951799 9.27251 4.24044
12701.00 1364.07 1.061293 48.4025 0.820674 16.1303 0.352511 0.123822 7.43864 0.0161201 13.2026 0.00937966 9.35559 4.14788
12601.00 1363.56 1.061930 48.4245 0.819987 16.1338 0.357587 0.121741 7.43009 0.0158912 13.1925 0.00924242 9.43935 4.05536
12501.00 1363.04 1.062602 48.446 0.819269 16.137 0.362743 0.119682 7.42154 0.0156639 13.1822 0.00910628 9.52377 3.96289
12401.00 1362.52 1.063311 48.4672 0.818516 16.1401 0.367978 0.117646 7.413 0.0154385 13.1718 0.00897123 9.60884 3.8705
12301.00 1361.99 1.064059 48.4881 0.817725 16.1429 0.37329 0.115632 7.40444 0.0152148 13.1611 0.00883729 9.69454 3.77823
12201.00 1361.46 1.064847 48.5087 0.816893 16.1455 0.37868 0.113642 7.39584 0.0149928 13.1501 0.00870446 9.78086 3.68608
12101.00 1360.92 1.065679 48.5289 0.816015 16.1479 0.384144 0.111677 7.3872 0.0147727 13.1389 0.00857275 9.86777 3.5941
12001.00 1360.38 1.066555 48.5489 0.815087 16.1501 0.389682 0.109736 7.37849 0.0145543 13.1274 0.00844216 9.95526 3.50231
11901.00 1359.83 1.067478 48.5687 0.814105 16.1521 0.395291 0.107821 7.3697 0.0143378 13.1156 0.0083127 10.0433 3.41075
11801.00 1359.27 1.068450 48.5883 0.813064 16.1539 0.40097 0.105933 7.3608 0.0141231 13.1034 0.00818438 10.1319 3.31944
11701.00 1358.71 1.069473 48.6077 0.811959 16.1555 0.406715 0.104071 7.35178 0.0139102 13.0909 0.0080572 10.2209 3.22842
11601.00 1358.14 1.070551 48.6269 0.810785 16.157 0.412525 0.102237 7.34262 0.0136992 13.0781 0.00793118 10.3105 3.13773
11501.00 1357.57 1.071684 48.6461 0.809536 16.1582 0.418395 0.100432 7.33329 0.01349 13.0649 0.00780632 10.4005 3.04739
11401.00 1356.99 1.072877 48.6652 0.808206 16.1593 0.424322 0.0986548 7.32377 0.0132828 13.0512 0.00768263 10.4909 2.95745
11301.00 1356.40 1.074133 48.6843 0.80679 16.1603 0.430303 0.0969076 7.31404 0.0130774 13.0371 0.00756012 10.5817 2.86794
11201.00 1355.80 1.075453 48.7035 0.80528 16.161 0.436332 0.0951907 7.30408 0.012874 13.0226 0.00743879 10.6728 2.7789
11101.00 1355.19 1.076841 48.7227 0.80367 16.1617 0.442406 0.0935048 7.29385 0.0126725 13.0076 0.00731866 10.7642 2.69037
11001.00 1354.58 1.078301 48.7421 0.801953 16.1622 0.44852 0.0918505 7.28332 0.012473 12.992 0.00719974 10.8559 2.60239
10901.00 1353.96 1.079835 48.7617 0.800121 16.1626 0.454668 0.0902286 7.27248 0.0122755 12.976 0.00708203 10.9479 2.515
10801.00 1353.32 1.081448 48.7816 0.798167 16.1628 0.460843 0.0886398 7.26129 0.01208 12.9594 0.00696555 11.04 2.42825
10701.00 1352.68 1.083142 48.8018 0.796081 16.163 0.467041 0.0870848 7.24973 0.0118865 12.9422 0.00685031 11.1322 2.34219
10601.00 1352.03 1.084923 48.8224 0.793856 16.163 0.473253 0.0855642 7.23775 0.011695 12.9244 0.00673631 11.2245 2.25685
10501.00 1351.37 1.086793 48.8435 0.791482 16.163 0.479473 0.0840789 7.22533 0.0115056 12.906 0.00662358 11.3168 2.17228
10401.00 1350.70 1.088756 48.8651 0.78895 16.1629 0.485694 0.0826296 7.21243 0.0113183 12.8869 0.00651213 11.4091 2.08854
10301.00 1350.01 1.090817 48.8873 0.78625 16.1627 0.491906 0.0812171 7.19903 0.0111332 12.8672 0.00640195 11.5013 2.00567
10201.00 1349.32 1.092980 48.9102 0.783372 16.1624 0.498101 0.0798421 7.18508 0.0109501 12.8467 0.00629308 11.5933 1.92373
10101.00 1348.61 1.095249 48.934 0.780306 16.1621 0.504271 0.0785055 7.17054 0.0107693 12.8255 0.00618553 11.6851 1.84277
10001.00 1347.89 1.097628 48.9586 0.77704 16.1617 0.510405 0.077208 7.15538 0.0105907 12.8036 0.0060793 11.7766 1.76284
9901.00 1347.16 1.100121 48.9842 0.773563 16.1612 0.516493 0.0759506 7.13956 0.0104143 12.7809 0.00597442 11.8677 1.684
9801.00 1346.42 1.102733 49.0109 0.769864 16.1608 0.522525 0.074734 7.12304 0.0102401 12.7574 0.00587089 11.9583 1.60631
9701.00 1345.66 1.105467 49.0388 0.765931 16.1602 0.528489 0.0735593 7.10578 0.0100683 12.7331 0.00576874 12.0485 1.52982
9601.00 1344.88 1.108327 49.0679 0.761751 16.1596 0.534375 0.0724273 7.08773 0.00989875 12.708 0.00566799 12.138 1.4546
9501.00 1344.09 1.111316 49.0985 0.757312 16.159 0.54017 0.0713389 7.06886 0.0097316 12.682 0.00556865 12.2268 1.38071
9401.00 1343.29 1.114437 49.1307 0.752601 16.1584 0.545862 0.0702953 7.04911 0.00956685 12.655 0.00547074 12.3147 1.30822
9301.00 1342.47 1.117692 49.1645 0.747606 16.1577 0.551438 0.0692974 7.02846 0.00940454 12.6272 0.00537427 12.4018 1.23718
9201.00 1341.63 1.121083 49.2001 0.742314 16.157 0.556886 0.0683463 7.00684 0.00924471 12.5985 0.00527928 12.4879 1.16767
9101.00 1340.77 1.124609 49.2376 0.736712 16.1562 0.562192 0.0674432 6.98422 0.00908739 12.5688 0.00518578 12.5728 1.09976
