Title: Depleted MORB Mantle of Workmann & Hart 2005

Phase Masses:
Pressure Temperature mass liquid_0 olivine_0 garnet_0 orthopyroxene_0 clinopyroxene_0 feldspar_0 spinel_0 
44001.00 1515.95 100.138999 0.000000 59.079190 12.432499 13.112604 14.398144 0.000000 1.116561 
43901.00 1515.71 100.138999 0.000000 59.077873 12.418807 13.118798 14.405619 0.000000 1.117902 
43801.00 1515.48 100.138999 0.000000 59.076543 12.405015 13.125027 14.413159 0.000000 1.119255 
43701.00 1515.24 100.138999 0.000000 59.075201 12.391120 13.131290 14.420766 0.000000 1.120622 
43601.00 1515.01 100.138999 0.000000 59.073846 12.377123 13.137589 14.428440 0.000000 1.122001 
43501.00 1514.77 100.138999 0.000000 59.072479 12.363021 13.143923 14.436182 0.000000 1.123394 
43401.00 1514.53 100.138999 0.000000 59.071098 12.348814 13.150294 14.443993 0.000000 1.124800 
43301.00 1514.30 100.138999 0.000000 59.069704 12.334502 13.156701 14.451872 0.000000 1.126220 
43201.00 1514.06 100.138999 0.000000 59.068297 12.320081 13.163145 14.459822 0.000000 1.127654 
43101.00 1513.83 100.138999 0.000000 59.066876 12.305553 13.169626 14.467842 0.000000 1.129102 
43001.00 1513.59 100.138999 0.000000 59.065441 12.290915 13.176145 14.475934 0.000000 1.130564 
42901.00 1513.35 100.138999 0.000000 59.063992 12.276165 13.182702 14.484099 0.000000 1.132041 
42801.00 1513.12 100.138999 0.000000 59.062529 12.261304 13.189297 14.492336 0.000000 1.133533 
42701.00 1512.88 100.138999 0.000000 59.061051 12.246330 13.195931 14.500647 0.000000 1.135040 
42601.00 1512.64 100.138999 0.000000 59.059559 12.231241 13.202604 14.509033 0.000000 1.136561 
42501.00 1512.41 100.138999 0.000000 59.058052 12.216037 13.209317 14.517495 0.000000 1.138099 
42401.00 1512.17 100.138999 0.000000 59.056529 12.200716 13.216070 14.526033 0.000000 1.139652 
42301.00 1511.93 100.138999 0.000000 59.054991 12.185276 13.222863 14.534648 0.000000 1.141221 
42201.00 1511.70 100.138999 0.000000 59.053438 12.169717 13.229698 14.543341 0.000000 1.142806 
42101.00 1511.46 100.138999 0.000000 59.051869 12.154037 13.236574 14.552113 0.000000 1.144407 
42001.00 1511.22 100.138999 0.000000 59.050284 12.138234 13.243491 14.560965 0.000000 1.146025 
41901.00 1510.99 100.138999 0.000000 59.048682 12.122308 13.250451 14.569898 0.000000 1.147660 
41801.00 1510.75 100.138999 0.000000 59.047064 12.106257 13.257454 14.578912 0.000000 1.149312 
41701.00 1510.51 100.138999 0.000000 59.045429 12.090080 13.264500 14.588009 0.000000 1.150982 
41601.00 1510.28 100.138999 0.000000 59.043776 12.073775 13.271589 14.597190 0.000000 1.152669 
41501.00 1510.04 100.138999 0.000000 59.042107 12.057340 13.278723 14.606455 0.000000 1.154374 
41401.00 1509.80 100.138999 0.000000 59.040419 12.040775 13.285902 14.615805 0.000000 1.156098 
41301.00 1509.56 100.138999 0.000000 59.038714 12.024077 13.293126 14.625242 0.000000 1.157840 
41201.00 1509.33 100.138999 0.000000 59.036991 12.007246 13.300395 14.634767 0.000000 1.159600 
41101.00 1509.09 100.138999 0.000000 59.035249 11.990279 13.307711 14.644379 0.000000 1.161380 
41001.00 1508.85 100.138999 0.000000 59.033488 11.973176 13.315074 14.654082 0.000000 1.163180 
40901.00 1508.61 100.138999 0.000000 59.031708 11.955933 13.322484 14.663874 0.000000 1.164999 
40801.00 1508.37 100.138999 0.000000 59.029909 11.938551 13.329942 14.673759 0.000000 1.166838 
40701.00 1508.14 100.138999 0.000000 59.028090 11.921027 13.337449 14.683735 0.000000 1.168698 
40601.00 1507.90 100.138999 0.000000 59.026251 11.903359 13.345005 14.693806 0.000000 1.170578 
40501.00 1507.66 100.138999 0.000000 59.024391 11.885546 13.352610 14.703972 0.000000 1.172480 
40401.00 1507.42 100.138999 0.000000 59.022511 11.867587 13.360266 14.714233 0.000000 1.174402 
40301.00 1507.18 100.138999 0.000000 59.020610 11.849478 13.367972 14.724592 0.000000 1.176347 
40201.00 1506.94 100.138999 0.000000 59.018688 11.831219 13.375731 14.735048 0.000000 1.178314 
40101.00 1506.71 100.138999 0.000000 59.016743 11.812808 13.383541 14.745605 0.000000 1.180303 
40001.00 1506.47 100.138999 0.000000 59.014777 11.794242 13.391404 14.756262 0.000000 1.182314 
39901.00 1506.23 100.138999 0.000000 59.012788 11.775520 13.399321 14.767021 0.000000 1.184350 
39801.00 1505.99 100.138999 0.000000 59.010776 11.756641 13.407291 14.777883 0.000000 1.186408 
39701.00 1505.75 100.138999 0.000000 59.008741 11.737601 13.415317 14.788849 0.000000 1.188491 
39601.00 1505.51 100.138999 0.000000 59.006683 11.718400 13.423398 14.799921 0.000000 1.190598 
39501.00 1505.27 100.138999 0.000000 59.004600 11.699034 13.431535 14.811100 0.000000 1.192730 
39401.00 1505.03 100.138999 0.000000 59.002493 11.679503 13.439729 14.822387 0.000000 1.194887 
39301.00 1504.79 100.138999 0.000000 59.000361 11.659804 13.447981 14.833784 0.000000 1.197070 
39201.00 1504.55 100.138999 0.000000 58.998204 11.639934 13.456291 14.845292 0.000000 1.199278 
39101.00 1504.31 100.138999 0.000000 58.996021 11.619892 13.464660 14.856912 0.000000 1.201514 
39001.00 1504.07 100.138999 0.000000 58.993813 11.599675 13.473090 14.868646 0.000000 1.203776 
38901.00 1503.83 100.138999 0.000000 58.991577 11.579282 13.481580 14.880495 0.000000 1.206065 
38801.00 1503.59 100.138999 0.000000 58.989315 11.558709 13.490131 14.892461 0.000000 1.208383 
38701.00 1503.35 100.138999 0.000000 58.987025 11.537955 13.498746 14.904545 0.000000 1.210729 
38601.00 1503.11 100.138999 0.000000 58.984707 11.517017 13.507423 14.916749 0.000000 1.213104 
38501.00 1502.87 100.138999 0.000000 58.982360 11.495893 13.516164 14.929074 0.000000 1.215508 
38401.00 1502.63 100.138999 0.000000 58.979985 11.474581 13.524970 14.941521 0.000000 1.217942 
38301.00 1502.39 100.138999 0.000000 58.977580 11.453077 13.533842 14.954093 0.000000 1.220406 
38201.00 1502.15 100.138999 0.000000 58.975145 11.431380 13.542781 14.966791 0.000000 1.222902 
38101.00 1501.91 100.138999 0.000000 58.972680 11.409486 13.551788 14.979617 0.000000 1.225429 
38001.00 1501.67 100.138999 0.000000 58.970183 11.387393 13.560863 14.992572 0.000000 1.227988 
37901.00 1501.43 100.138999 0.000000 58.967655 11.365099 13.570008 15.005658 0.000000 1.230579 
37801.00 1501.19 100.138999 0.000000 58.965095 11.342601 13.579223 15.018877 0.000000 1.233204 
37701.00 1500.94 100.138999 0.000000 58.962502 11.319896 13.588510 15.032230 0.000000 1.235862 
37601.00 1500.70 100.138999 0.000000 58.959875 11.296980 13.597869 15.045719 0.000000 1.238555 
37501.00 1500.46 100.138999 0.000000 58.957215 11.273852 13.607302 15.059347 0.000000 1.241283 
37401.00 1500.22 100.138999 0.000000 58.954520 11.250509 13.616809 15.073114 0.000000 1.244047 
37301.00 1499.98 100.138999 0.000000 58.951790 11.226946 13.626393 15.087023 0.000000 1.246846 
37201.00 1499.73 100.138999 0.000000 58.949024 11.203162 13.636053 15.101077 0.000000 1.249683 
37101.00 1499.49 100.138999 0.000000 58.946222 11.179153 13.645791 15.115276 0.000000 1.252558 
37001.00 1499.25 100.138999 0.000000 58.943382 11.154916 13.655609 15.129622 0.000000 1.255470 
36901.00 1499.01 100.138999 0.000000 58.940505 11.130447 13.665506 15.144119 0.000000 1.258422 
36801.00 1498.76 100.138999 0.000000 58.937589 11.105745 13.675485 15.158767 0.000000 1.261414 
36701.00 1498.52 100.138999 0.000000 58.934633 11.080804 13.685547 15.173569 0.000000 1.264445 
36601.00 1498.28 100.138999 0.000000 58.931638 11.055622 13.695693 15.188528 0.000000 1.267519 
36501.00 1498.03 100.138999 0.000000 58.928602 11.030195 13.705924 15.203644 0.000000 1.270634 
36401.00 1497.79 100.138999 0.000000 58.925524 11.004519 13.716242 15.218922 0.000000 1.273792 
36301.00 1497.55 100.138999 0.000000 58.922404 10.978592 13.726648 15.234362 0.000000 1.276993 
36201.00 1497.30 100.138999 0.000000 58.919241 10.952409 13.737142 15.249967 0.000000 1.280239 
36101.00 1497.06 100.138999 0.000000 58.916035 10.925966 13.747728 15.265740 0.000000 1.283531 
36001.00 1496.81 100.138999 0.000000 58.912783 10.899261 13.758405 15.281683 0.000000 1.286868 
35901.00 1496.57 100.138999 0.000000 58.909485 10.872288 13.769176 15.297798 0.000000 1.290252 
35801.00 1496.32 100.138999 0.000000 58.906142 10.845043 13.780042 15.314088 0.000000 1.293684 
35701.00 1496.08 100.138999 0.000000 58.902750 10.817524 13.791004 15.330555 0.000000 1.297165 
35601.00 1495.83 100.138999 0.000000 58.899311 10.789724 13.802065 15.347203 0.000000 1.300696 
35501.00 1495.59 100.138999 0.000000 58.895822 10.761641 13.813225 15.364033 0.000000 1.304278 
35401.00 1495.34 100.138999 0.000000 58.892283 10.733270 13.824486 15.381049 0.000000 1.307911 
35301.00 1495.10 100.138999 0.000000 58.888693 10.704607 13.835850 15.398253 0.000000 1.311597 
35201.00 1494.85 100.138999 0.000000 58.885051 10.675646 13.847318 15.415648 0.000000 1.315336 
35101.00 1494.60 100.138999 0.000000 58.881355 10.646384 13.858893 15.433236 0.000000 1.319131 
35001.00 1494.36 100.138999 0.000000 58.877605 10.616815 13.870575 15.451022 0.000000 1.322981 
34901.00 1494.11 100.138999 0.000000 58.873800 10.586936 13.882367 15.469008 0.000000 1.326888 
34801.00 1493.86 100.138999 0.000000 58.869939 10.556740 13.894271 15.487196 0.000000 1.330854 
34701.00 1493.62 100.138999 0.000000 58.866019 10.526223 13.906288 15.505590 0.000000 1.334878 
34601.00 1493.37 100.138999 0.000000 58.862042 10.495379 13.918421 15.524194 0.000000 1.338963 
34501.00 1493.12 100.138999 0.000000 58.858004 10.464204 13.930671 15.543010 0.000000 1.343110 
34401.00 1492.87 100.138999 0.000000 58.853905 10.432693 13.943040 15.562042 0.000000 1.347320 
34301.00 1492.63 100.138999 0.000000 58.849744 10.400839 13.955530 15.581293 0.000000 1.351593 
34201.00 1492.38 100.138999 0.000000 58.845519 10.368637 13.968144 15.600767 0.000000 1.355933 
34101.00 1492.13 100.138999 0.000000 58.841229 10.336082 13.980883 15.620467 0.000000 1.360339 
34001.00 1491.88 100.138999 0.000000 58.836873 10.303167 13.993750 15.640397 0.000000 1.364813 
33901.00 1491.63 100.138999 0.000000 58.832449 10.269886 14.006747 15.660560 0.000000 1.369357 
33801.00 1491.38 100.138999 0.000000 58.827957 10.236235 14.019876 15.680961 0.000000 1.373971 
33701.00 1491.13 100.138999 0.000000 58.823393 10.202205 14.033139 15.701602 0.000000 1.378659 
33601.00 1490.88 100.138999 0.000000 58.818758 10.167792 14.046540 15.722489 0.000000 1.383420 
33501.00 1490.63 100.138999 0.000000 58.814050 10.132988 14.060079 15.743625 0.000000 1.388256 
33401.00 1490.38 100.138999 0.000000 58.809267 10.097787 14.073761 15.765014 0.000000 1.393170 
33301.00 1490.13 100.138999 0.000000 58.804407 10.062182 14.087587 15.786661 0.000000 1.398162 
33201.00 1489.88 100.138999 0.000000 58.799469 10.026166 14.101559 15.808570 0.000000 1.403235 
33101.00 1489.63 100.138999 0.000000 58.794452 9.989732 14.115682 15.830745 0.000000 1.408390 
33001.00 1489.38 100.138999 0.000000 58.789353 9.952872 14.129956 15.853190 0.000000 1.413628 
32901.00 1489.13 100.138999 0.000000 58.784170 9.915580 14.144386 15.875911 0.000000 1.418952 
32801.00 1488.87 100.138999 0.000000 58.778903 9.877847 14.158974 15.898912 0.000000 1.424364 
32701.00 1488.62 100.138999 0.000000 58.773549 9.839666 14.173722 15.922197 0.000000 1.429864 
32601.00 1488.37 100.138999 0.000000 58.768106 9.801029 14.188635 15.945773 0.000000 1.435456 
32501.00 1488.12 100.138999 0.000000 58.762573 9.761928 14.203714 15.969644 0.000000 1.441141 
32401.00 1487.86 100.138999 0.000000 58.756947 9.722353 14.218963 15.993814 0.000000 1.446921 
32301.00 1487.61 100.138999 0.000000 58.751227 9.682298 14.234386 16.018290 0.000000 1.452798 
32201.00 1487.35 100.138999 0.000000 58.745410 9.641753 14.249985 16.043077 0.000000 1.458775 
32101.00 1487.10 100.138999 0.000000 58.739494 9.600708 14.265764 16.068180 0.000000 1.464853 
32001.00 1486.84 100.138999 0.000000 58.733478 9.559155 14.281726 16.093605 0.000000 1.471034 
31901.00 1486.59 100.138999 0.000000 58.727358 9.517085 14.297875 16.119358 0.000000 1.477322 
31801.00 1486.33 100.138999 0.000000 58.721133 9.474488 14.314215 16.145445 0.000000 1.483718 
31701.00 1486.08 100.138999 0.000000 58.714800 9.431353 14.330749 16.171873 0.000000 1.490225 
31601.00 1485.82 100.138999 0.000000 58.708356 9.387671 14.347480 16.198646 0.000000 1.496845 
31501.00 1485.56 100.138999 0.000000 58.701800 9.343432 14.364414 16.225772 0.000000 1.503581 
31401.00 1485.31 100.138999 0.000000 58.695129 9.298624 14.381553 16.253258 0.000000 1.510436 
31301.00 1485.05 100.138999 0.000000 58.688340 9.253237 14.398902 16.281109 0.000000 1.517411 
31201.00 1484.79 100.138999 0.000000 58.681430 9.207260 14.416465 16.309334 0.000000 1.524510 
31101.00 1484.53 100.138999 0.000000 58.674398 9.160680 14.434246 16.337939 0.000000 1.531736 
31001.00 1484.27 100.138999 0.000000 58.667239 9.113488 14.452250 16.366931 0.000000 1.539091 
30901.00 1484.01 100.138999 0.000000 58.659950 9.065669 14.470481 16.396319 0.000000 1.546579 
30801.00 1483.75 100.138999 0.000000 58.652530 9.017213 14.488944 16.426109 0.000000 1.554203 
30701.00 1483.49 100.138999 0.000000 58.644975 8.968106 14.507643 16.456310 0.000000 1.561965 
30601.00 1483.23 100.138999 0.000000 58.637282 8.918335 14.526584 16.486929 0.000000 1.569869 
30501.00 1482.97 100.138999 0.000000 58.629447 8.867887 14.545770 16.517976 0.000000 1.577919 
30401.00 1482.71 100.138999 0.000000 58.621467 8.816748 14.565209 16.549458 0.000000 1.586117 
30301.00 1482.45 100.138999 0.000000 58.613339 8.764904 14.584903 16.581384 0.000000 1.594468 
30201.00 1482.19 100.138999 0.000000 58.605059 8.712341 14.604860 16.613764 0.000000 1.602974 
30101.00 1481.92 100.138999 0.000000 58.596624 8.659044 14.625085 16.646607 0.000000 1.611640 
30001.00 1481.66 100.138999 0.000000 58.588030 8.604997 14.645582 16.679922 0.000000 1.620469 
29901.00 1481.40 100.138999 0.000000 58.579272 8.550184 14.666358 16.713718 0.000000 1.629466 
29801.00 1481.13 100.138999 0.000000 58.570348 8.494590 14.687420 16.748007 0.000000 1.638634 
29701.00 1480.87 100.138999 0.000000 58.561252 8.438198 14.708772 16.782799 0.000000 1.647977 
29601.00 1480.60 100.138999 0.000000 58.551982 8.380991 14.730422 16.818103 0.000000 1.657501 
29501.00 1480.33 100.138999 0.000000 58.542532 8.322952 14.752376 16.853932 0.000000 1.667208 
29401.00 1480.07 100.138999 0.000000 58.532898 8.264061 14.774640 16.890296 0.000000 1.677105 
29301.00 1479.80 100.138999 0.000000 58.523075 8.204302 14.797221 16.927206 0.000000 1.687195 
29201.00 1479.53 100.138999 0.000000 58.513059 8.143654 14.820127 16.964676 0.000000 1.697483 
29101.00 1479.26 100.138999 0.000000 58.502845 8.082098 14.843365 17.002717 0.000000 1.707974 
29001.00 1478.99 100.138999 0.000000 58.492428 8.019614 14.866941 17.041342 0.000000 1.718674 
28901.00 1478.71 100.138999 0.003730 58.478252 7.959087 14.899525 17.069099 0.000000 1.729307 
28801.00 1478.40 100.138999 0.010893 58.460660 7.900255 14.940363 17.086938 0.000000 1.739890 
28701.00 1478.10 100.138999 0.018190 58.442809 7.840522 14.981785 17.105019 0.000000 1.750674 
28601.00 1477.79 100.138999 0.025623 58.424694 7.779868 15.023799 17.123351 0.000000 1.761665 
28501.00 1477.49 100.138999 0.033196 58.406310 7.718272 15.066415 17.141941 0.000000 1.772866 
28401.00 1477.18 100.138999 0.040911 58.387653 7.655711 15.109642 17.160800 0.000000 1.784284 
28301.00 1476.87 100.138999 0.048769 58.368718 7.592163 15.153490 17.179937 0.000000 1.795923 
28201.00 1476.56 100.138999 0.056773 58.349500 7.527604 15.197970 17.199362 0.000000 1.807790 
28101.00 1476.25 100.138999 0.064926 58.329995 7.462011 15.243092 17.219086 0.000000 1.819889 
28001.00 1475.93 100.138999 0.073230 58.310197 7.395359 15.288866 17.239119 0.000000 1.832227 
27901.00 1475.62 100.138999 0.081688 58.290101 7.327622 15.335305 17.259473 0.000000 1.844811 
27801.00 1475.30 100.138999 0.090303 58.269701 7.258773 15.382419 17.280159 0.000000 1.857645 
27701.00 1474.99 100.138999 0.099076 58.248992 7.188786 15.430220 17.301188 0.000000 1.870737 
27601.00 1474.67 100.138999 0.108012 58.227968 7.117633 15.478720 17.322573 0.000000 1.884093 
27501.00 1474.35 100.138999 0.117112 58.206623 7.045284 15.527932 17.344327 0.000000 1.897721 
27401.00 1474.03 100.138999 0.126379 58.184950 6.971710 15.577869 17.366463 0.000000 1.911627 
27301.00 1473.71 100.138999 0.135817 58.162944 6.896881 15.628544 17.388994 0.000000 1.925819 
27201.00 1473.38 100.138999 0.145429 58.140597 6.820764 15.679970 17.411935 0.000000 1.940304 
27101.00 1473.06 100.138999 0.155217 58.117903 6.743326 15.732162 17.435300 0.000000 1.955091 
27001.00 1472.73 100.138999 0.165185 58.094854 6.664534 15.785135 17.459104 0.000000 1.970187 
26901.00 1472.40 100.138999 0.175335 58.071444 6.584352 15.838903 17.483364 0.000000 1.985602 
26801.00 1472.07 100.138999 0.185671 58.047664 6.502745 15.893482 17.508094 0.000000 2.001343 
26701.00 1471.74 100.138999 0.196197 58.023507 6.419675 15.948888 17.533313 0.000000 2.017419 
26601.00 1471.41 100.138999 0.206915 57.998964 6.335102 16.005138 17.559037 0.000000 2.033842 
26501.00 1471.07 100.138999 0.217830 57.974027 6.248988 16.062249 17.585286 0.000000 2.050619 
26401.00 1470.74 100.138999 0.228944 57.948688 6.161290 16.120239 17.612077 0.000000 2.067761 
26301.00 1470.40 100.138999 0.240261 57.922937 6.071966 16.179126 17.639431 0.000000 2.085278 
26201.00 1470.06 100.138999 0.251784 57.896765 5.980970 16.238929 17.667368 0.000000 2.103182 
26101.00 1469.72 100.138999 0.263518 57.870161 5.888258 16.299668 17.695909 0.000000 2.121484 
26001.00 1469.37 100.138999 0.275467 57.843117 5.793780 16.361364 17.725076 0.000000 2.140195 
25901.00 1469.03 100.138999 0.287633 57.815621 5.697488 16.424037 17.754893 0.000000 2.159327 
25801.00 1468.68 100.138999 0.300020 57.787662 5.599330 16.487710 17.785383 0.000000 2.178894 
25701.00 1468.33 100.138999 0.312634 57.759229 5.499252 16.552405 17.816571 0.000000 2.198908 
25601.00 1467.98 100.138999 0.325477 57.730311 5.397200 16.618147 17.848483 0.000000 2.219382 
25501.00 1467.62 100.138999 0.338554 57.700894 5.293115 16.684959 17.881146 0.000000 2.240331 
25401.00 1467.27 100.138999 0.351868 57.670966 5.186939 16.752867 17.914588 0.000000 2.261770 
25301.00 1466.91 100.138999 0.365425 57.640514 5.078608 16.821898 17.948840 0.000000 2.283714 
25201.00 1466.55 100.138999 0.379227 57.609524 4.968059 16.892079 17.983930 0.000000 2.306179 
25101.00 1466.19 100.138999 0.393280 57.577982 4.855224 16.963438 18.019893 0.000000 2.329182 
25001.00 1465.82 100.138999 0.407588 57.545872 4.740034 17.036006 18.056760 0.000000 2.352739 
24901.00 1465.46 100.138999 0.422154 57.513179 4.622415 17.109814 18.094567 0.000000 2.376869 
24801.00 1465.09 100.138999 0.436984 57.479887 4.502292 17.184893 18.133351 0.000000 2.401591 
24701.00 1464.72 100.138999 0.452082 57.445978 4.379587 17.261277 18.173150 0.000000 2.426925 
24601.00 1464.34 100.138999 0.467451 57.411435 4.254217 17.339001 18.214005 0.000000 2.452890 
24501.00 1463.97 100.138999 0.483097 57.376239 4.126097 17.418102 18.255956 0.000000 2.479509 
24401.00 1463.59 100.138999 0.499024 57.340371 3.995137 17.498617 18.299048 0.000000 2.506803 
24301.00 1463.20 100.138999 0.515236 57.303810 3.861243 17.580586 18.343327 0.000000 2.534796 
24201.00 1462.82 100.138999 0.531739 57.266536 3.724320 17.664049 18.388842 0.000000 2.563513 
24101.00 1462.43 100.138999 0.548535 57.228526 3.584265 17.749051 18.435643 0.000000 2.592979 
24001.00 1462.04 100.138999 0.565630 57.189757 3.440971 17.835636 18.483784 0.000000 2.623221 
23901.00 1461.65 100.138999 0.583028 57.150205 3.294329 17.923851 18.533321 0.000000 2.654266 
23801.00 1461.25 100.138999 0.600733 57.109844 3.144221 18.013745 18.584312 0.000000 2.686145 
23701.00 1460.85 100.138999 0.618749 57.068648 2.990527 18.105368 18.636820 0.000000 2.718887 
23601.00 1460.45 100.138999 0.637080 57.026589 2.833119 18.198775 18.690910 0.000000 2.752526 
