Title: Depleted MORB Mantle of Workmann & Hart 2005

System Thermodynamic Data:
Pressure Temperature mass F phi S H V Cp dVdP*10^6 dVdT*10^6 fO2(absolute) fO2(absolute) rhol rhos viscosity aH2O chisqr
44001.00 1440.20 100.138999 0.0000000000000000 0.000000 256.081471 -1146598.558611 30.251660 125.175545 -19.915000 1464.079922 -5.697 -5.697 0.000000 3.310198 0.000 0 0.000
43901.00 1439.98 100.138999 0.0000000000000000 0.000000 256.081471 -1146901.084948 30.253608 125.182529 -19.922152 1464.009757 -5.702 -5.702 0.000000 3.309985 0.000 0 0.000
43801.00 1439.76 100.138999 0.0000000000000000 0.000000 256.081471 -1147203.630775 30.255558 125.189514 -19.929309 1463.939774 -5.706 -5.706 0.000000 3.309772 0.000 0 0.000
43701.00 1439.54 100.138999 0.0000000000000000 0.000000 256.081471 -1147506.196117 30.257511 125.196500 -19.936472 1463.869975 -5.711 -5.711 0.000000 3.309558 0.000 0 0.000
43601.00 1439.32 100.138999 0.0000000000000000 0.000000 256.081471 -1147808.781000 30.259466 125.203486 -19.943642 1463.800363 -5.716 -5.716 0.000000 3.309345 0.000 0 0.000
43501.00 1439.11 100.138999 0.0000000000000000 0.000000 256.081471 -1148111.385451 30.261424 125.210473 -19.950817 1463.730937 -5.721 -5.721 0.000000 3.309130 0.000 0 0.000
43401.00 1438.89 100.138999 0.0000000000000000 0.000000 256.081471 -1148414.009496 30.263385 125.217461 -19.957998 1463.661701 -5.726 -5.726 0.000000 3.308916 0.000 0 0.000
43301.00 1438.67 100.138999 0.0000000000000000 0.000000 256.081471 -1148716.653161 30.265348 125.224450 -19.965185 1463.592655 -5.731 -5.731 0.000000 3.308701 0.000 0 0.000
43201.00 1438.45 100.138999 0.0000000000000000 0.000000 256.081471 -1149019.316473 30.267314 125.231439 -19.972378 1463.523803 -5.736 -5.736 0.000000 3.308486 0.000 0 0.000
43101.00 1438.23 100.138999 0.0000000000000000 0.000000 256.081471 -1149321.999460 30.269283 125.238430 -19.979577 1463.455144 -5.741 -5.741 0.000000 3.308271 0.000 0 0.000
43001.00 1438.01 100.138999 0.0000000000000000 0.000000 256.081471 -1149624.702147 30.271255 125.245421 -19.986783 1463.386681 -5.746 -5.746 0.000000 3.308056 0.000 0 0.000
42901.00 1437.79 100.138999 0.0000000000000000 0.000000 256.081471 -1149927.424562 30.273229 125.252414 -19.993994 1463.318417 -5.751 -5.751 0.000000 3.307840 0.000 0 0.000
42801.00 1437.58 100.138999 0.0000000000000000 0.000000 256.081471 -1150230.166734 30.275206 125.259407 -20.001212 1463.250352 -5.756 -5.756 0.000000 3.307624 0.000 0 0.000
42701.00 1437.36 100.138999 0.0000000000000000 0.000000 256.081471 -1150532.928689 30.277186 125.266402 -20.008437 1463.182488 -5.761 -5.761 0.000000 3.307408 0.000 0 0.000
42601.00 1437.14 100.138999 0.0000000000000000 0.000000 256.081471 -1150835.710455 30.279168 125.273398 -20.015668 1463.114829 -5.766 -5.766 0.000000 3.307191 0.000 0 0.000
42501.00 1436.92 100.138999 0.0000000000000000 0.000000 256.081471 -1151138.512061 30.281154 125.280394 -20.022905 1463.047374 -5.771 -5.771 0.000000 3.306974 0.000 0 0.000
42401.00 1436.70 100.138999 0.0000000000000000 0.000000 256.081471 -1151441.333535 30.283142 125.287392 -20.030149 1462.980127 -5.776 -5.776 0.000000 3.306757 0.000 0 0.000
42301.00 1436.48 100.138999 0.0000000000000000 0.000000 256.081471 -1151744.174905 30.285133 125.294391 -20.037400 1462.913089 -5.781 -5.781 0.000000 3.306540 0.000 0 0.000
42201.00 1436.26 100.138999 0.0000000000000000 0.000000 256.081471 -1152047.036200 30.287127 125.301391 -20.044657 1462.846262 -5.786 -5.786 0.000000 3.306322 0.000 0 0.000
42101.00 1436.04 100.138999 0.0000000000000000 0.000000 256.081471 -1152349.917450 30.289124 125.308393 -20.051921 1462.779649 -5.791 -5.791 0.000000 3.306104 0.000 0 0.000
42001.00 1435.82 100.138999 0.0000000000000000 0.000000 256.081471 -1152652.818683 30.291123 125.315395 -20.059192 1462.713251 -5.796 -5.796 0.000000 3.305886 0.000 0 0.000
41901.00 1435.60 100.138999 0.0000000000000000 0.000000 256.081471 -1152955.739929 30.293126 125.322399 -20.066470 1462.647070 -5.801 -5.801 0.000000 3.305667 0.000 0 0.000
41801.00 1435.38 100.138999 0.0000000000000000 0.000000 256.081471 -1153258.681217 30.295132 125.329404 -20.073755 1462.581109 -5.807 -5.807 0.000000 3.305449 0.000 0 0.000
41701.00 1435.16 100.138999 0.0000000000000000 0.000000 256.081471 -1153561.642577 30.297141 125.336411 -20.081047 1462.515370 -5.812 -5.812 0.000000 3.305229 0.000 0 0.000
41601.00 1434.95 100.138999 0.0000000000000000 0.000000 256.081471 -1153864.624040 30.299152 125.343419 -20.088346 1462.449854 -5.817 -5.817 0.000000 3.305010 0.000 0 0.000
41501.00 1434.73 100.138999 0.0000000000000000 0.000000 256.081471 -1154167.625636 30.301167 125.350429 -20.095652 1462.384565 -5.822 -5.822 0.000000 3.304790 0.000 0 0.000
41401.00 1434.51 100.138999 0.0000000000000000 0.000000 256.081471 -1154470.647396 30.303185 125.357440 -20.102965 1462.319504 -5.827 -5.827 0.000000 3.304570 0.000 0 0.000
41301.00 1434.29 100.138999 0.0000000000000000 0.000000 256.081471 -1154773.689350 30.305206 125.364452 -20.110286 1462.254674 -5.833 -5.833 0.000000 3.304350 0.000 0 0.000
41201.00 1434.07 100.138999 0.0000000000000000 0.000000 256.081471 -1155076.751529 30.307230 125.371466 -20.117614 1462.190076 -5.838 -5.838 0.000000 3.304129 0.000 0 0.000
41101.00 1433.85 100.138999 0.0000000000000000 0.000000 256.081471 -1155379.833966 30.309258 125.378482 -20.124949 1462.125714 -5.843 -5.843 0.000000 3.303908 0.000 0 0.000
41001.00 1433.63 100.138999 0.0000000000000000 0.000000 256.081471 -1155682.936691 30.311288 125.385499 -20.132293 1462.061590 -5.848 -5.848 0.000000 3.303687 0.000 0 0.000
40901.00 1433.41 100.138999 0.0000000000000000 0.000000 256.081471 -1155986.059736 30.313322 125.392518 -20.139643 1461.997706 -5.854 -5.854 0.000000 3.303465 0.000 0 0.000
40801.00 1433.19 100.138999 0.0000000000000000 0.000000 256.081471 -1156289.203134 30.315359 125.399539 -20.147002 1461.934064 -5.859 -5.859 0.000000 3.303243 0.000 0 0.000
40701.00 1432.97 100.138999 0.0000000000000000 0.000000 256.081471 -1156592.366918 30.317399 125.406562 -20.154368 1461.870668 -5.864 -5.864 0.000000 3.303021 0.000 0 0.000
40601.00 1432.75 100.138999 0.0000000000000000 0.000000 256.081471 -1156895.551119 30.319442 125.413586 -20.161742 1461.807519 -5.870 -5.870 0.000000 3.302798 0.000 0 0.000
40501.00 1432.53 100.138999 0.0000000000000000 0.000000 256.081471 -1157198.755770 30.321489 125.420612 -20.169124 1461.744620 -5.875 -5.875 0.000000 3.302575 0.000 0 0.000
40401.00 1432.31 100.138999 0.0000000000000000 0.000000 256.081471 -1157501.980906 30.323539 125.427640 -20.176514 1461.681974 -5.880 -5.880 0.000000 3.302352 0.000 0 0.000
40301.00 1432.09 100.138999 0.0000000000000000 0.000000 256.081471 -1157805.226560 30.325592 125.434670 -20.183912 1461.619584 -5.886 -5.886 0.000000 3.302128 0.000 0 0.000
40201.00 1431.87 100.138999 0.0000000000000000 0.000000 256.081471 -1158108.492765 30.327649 125.441702 -20.191319 1461.557452 -5.891 -5.891 0.000000 3.301904 0.000 0 0.000
40101.00 1431.65 100.138999 0.0000000000000000 0.000000 256.081471 -1158411.779556 30.329710 125.448736 -20.198733 1461.495581 -5.897 -5.897 0.000000 3.301680 0.000 0 0.000
40001.00 1431.43 100.138999 0.0000000000000000 0.000000 256.081471 -1158715.086968 30.331773 125.455773 -20.206156 1461.433974 -5.902 -5.902 0.000000 3.301455 0.000 0 0.000
39901.00 1431.21 100.138999 0.0000000000000000 0.000000 256.081471 -1159018.415034 30.333841 125.462811 -20.213588 1461.372633 -5.908 -5.908 0.000000 3.301230 0.000 0 0.000
39801.00 1430.99 100.138999 0.0000000000000000 0.000000 256.081471 -1159321.763791 30.335911 125.469851 -20.221028 1461.311562 -5.913 -5.913 0.000000 3.301005 0.000 0 0.000
39701.00 1430.76 100.138999 0.0000000000000000 0.000000 256.081471 -1159625.133273 30.337986 125.476894 -20.228477 1461.250764 -5.919 -5.919 0.000000 3.300779 0.000 0 0.000
39601.00 1430.54 100.138999 0.0000000000000000 0.000000 256.081471 -1159928.523516 30.340064 125.483939 -20.235934 1461.190241 -5.924 -5.924 0.000000 3.300553 0.000 0 0.000
39501.00 1430.32 100.138999 0.0000000000000000 0.000000 256.081471 -1160231.934557 30.342145 125.490986 -20.243401 1461.129996 -5.930 -5.930 0.000000 3.300327 0.000 0 0.000
39401.00 1430.10 100.138999 0.0000000000000000 0.000000 256.081471 -1160535.366431 30.344230 125.498036 -20.250876 1461.070033 -5.935 -5.935 0.000000 3.300100 0.000 0 0.000
39301.00 1429.88 100.138999 0.0000000000000000 0.000000 256.081471 -1160838.819176 30.346319 125.505088 -20.258360 1461.010355 -5.941 -5.941 0.000000 3.299873 0.000 0 0.000
39201.00 1429.66 100.138999 0.0000000000000000 0.000000 256.081471 -1161142.292829 30.348412 125.512143 -20.265853 1460.950965 -5.946 -5.946 0.000000 3.299645 0.000 0 0.000
39101.00 1429.44 100.138999 0.0000000000000000 0.000000 256.081471 -1161445.787427 30.350508 125.519200 -20.273356 1460.891865 -5.952 -5.952 0.000000 3.299418 0.000 0 0.000
39001.00 1429.22 100.138999 0.0000000000000000 0.000000 256.081471 -1161749.303007 30.352608 125.526260 -20.280868 1460.833061 -5.958 -5.958 0.000000 3.299189 0.000 0 0.000
38901.00 1429.00 100.138999 0.0000000000000000 0.000000 256.081471 -1162052.839609 30.354713 125.533323 -20.288390 1460.774554 -5.963 -5.963 0.000000 3.298961 0.000 0 0.000
38801.00 1428.78 100.138999 0.0000000000000000 0.000000 256.081471 -1162356.397270 30.356820 125.540388 -20.295920 1460.716349 -5.969 -5.969 0.000000 3.298731 0.000 0 0.000
38701.00 1428.55 100.138999 0.0000000000000000 0.000000 256.081471 -1162659.976030 30.358932 125.547456 -20.303461 1460.658448 -5.975 -5.975 0.000000 3.298502 0.000 0 0.000
38601.00 1428.33 100.138999 0.0000000000000000 0.000000 256.081471 -1162963.575928 30.361048 125.554527 -20.311012 1460.600856 -5.980 -5.980 0.000000 3.298272 0.000 0 0.000
38501.00 1428.11 100.138999 0.0000000000000000 0.000000 256.081471 -1163267.197003 30.363168 125.561601 -20.318572 1460.543575 -5.986 -5.986 0.000000 3.298042 0.000 0 0.000
38401.00 1427.89 100.138999 0.0000000000000000 0.000000 256.081471 -1163570.839295 30.365291 125.568678 -20.326142 1460.486610 -5.992 -5.992 0.000000 3.297811 0.000 0 0.000
38301.00 1427.67 100.138999 0.0000000000000000 0.000000 256.081471 -1163874.502846 30.367419 125.575758 -20.333722 1460.429965 -5.997 -5.997 0.000000 3.297580 0.000 0 0.000
38201.00 1427.45 100.138999 0.0000000000000000 0.000000 256.081471 -1164178.187695 30.369551 125.582841 -20.341313 1460.373642 -6.003 -6.003 0.000000 3.297349 0.000 0 0.000
38101.00 1427.22 100.138999 0.0000000000000000 0.000000 256.081471 -1164481.893885 30.371687 125.589927 -20.348914 1460.317646 -6.009 -6.009 0.000000 3.297117 0.000 0 0.000
38001.00 1427.00 100.138999 0.0000000000000000 0.000000 256.081471 -1164785.621456 30.373828 125.597016 -20.356525 1460.261982 -6.015 -6.015 0.000000 3.296884 0.000 0 0.000
37901.00 1426.78 100.138999 0.0000000000000000 0.000000 256.081471 -1165089.370451 30.375972 125.604109 -20.364147 1460.206652 -6.021 -6.021 0.000000 3.296652 0.000 0 0.000
37801.00 1426.56 100.138999 0.0000000000000000 0.000000 256.081471 -1165393.140913 30.378121 125.611205 -20.371780 1460.151661 -6.027 -6.027 0.000000 3.296418 0.000 0 0.000
37701.00 1426.34 100.138999 0.0000000000000000 0.000000 256.081471 -1165696.932885 30.380274 125.618304 -20.379424 1460.097013 -6.033 -6.033 0.000000 3.296185 0.000 0 0.000
37601.00 1426.11 100.138999 0.0000000000000000 0.000000 256.081471 -1166000.746410 30.382432 125.625408 -20.387078 1460.042713 -6.038 -6.038 0.000000 3.295951 0.000 0 0.000
37501.00 1425.89 100.138999 0.0000000000000000 0.000000 256.081471 -1166304.581532 30.384594 125.632514 -20.394744 1459.988764 -6.044 -6.044 0.000000 3.295716 0.000 0 0.000
37401.00 1425.67 100.138999 0.0000000000000000 0.000000 256.081471 -1166608.438295 30.386760 125.639625 -20.402420 1459.935171 -6.050 -6.050 0.000000 3.295481 0.000 0 0.000
37301.00 1425.44 100.138999 0.0000000000000000 0.000000 256.081471 -1166912.316745 30.388931 125.646739 -20.410109 1459.881938 -6.056 -6.056 0.000000 3.295246 0.000 0 0.000
37201.00 1425.22 100.138999 0.0000000000000000 0.000000 256.081471 -1167216.216927 30.391106 125.653857 -20.417808 1459.829071 -6.062 -6.062 0.000000 3.295010 0.000 0 0.000
37101.00 1425.00 100.138999 0.0000000000000000 0.000000 256.081471 -1167520.138886 30.393286 125.660979 -20.425520 1459.776573 -6.068 -6.068 0.000000 3.294774 0.000 0 0.000
37001.00 1424.78 100.138999 0.0000000000000000 0.000000 256.081471 -1167824.082669 30.395471 125.668105 -20.433243 1459.724450 -6.074 -6.074 0.000000 3.294537 0.000 0 0.000
36901.00 1424.55 100.138999 0.0000000000000000 0.000000 256.081471 -1168128.048323 30.397661 125.675235 -20.440978 1459.672706 -6.080 -6.080 0.000000 3.294300 0.000 0 0.000
36801.00 1424.33 100.138999 0.0000000000000000 0.000000 256.081471 -1168432.035896 30.399855 125.682369 -20.448725 1459.621346 -6.086 -6.086 0.000000 3.294062 0.000 0 0.000
36701.00 1424.11 100.138999 0.0000000000000000 0.000000 256.081471 -1168736.045434 30.402054 125.689507 -20.456484 1459.570375 -6.093 -6.093 0.000000 3.293823 0.000 0 0.000
36601.00 1423.88 100.138999 0.0000000000000000 0.000000 256.081471 -1169040.076988 30.404258 125.696650 -20.464256 1459.519798 -6.099 -6.099 0.000000 3.293585 0.000 0 0.000
36501.00 1423.66 100.138999 0.0000000000000000 0.000000 256.081471 -1169344.130605 30.406467 125.703797 -20.472040 1459.469620 -6.105 -6.105 0.000000 3.293345 0.000 0 0.000
36401.00 1423.44 100.138999 0.0000000000000000 0.000000 256.081471 -1169648.206336 30.408680 125.710949 -20.479837 1459.419847 -6.111 -6.111 0.000000 3.293106 0.000 0 0.000
36301.00 1423.21 100.138999 0.0000000000000000 0.000000 256.081471 -1169952.304230 30.410899 125.718105 -20.487647 1459.370484 -6.117 -6.117 0.000000 3.292865 0.000 0 0.000
36201.00 1422.99 100.138999 0.0000000000000000 0.000000 256.081471 -1170256.424339 30.413123 125.725266 -20.495470 1459.321537 -6.123 -6.123 0.000000 3.292625 0.000 0 0.000
36101.00 1422.76 100.138999 0.0000000000000000 0.000000 256.081471 -1170560.566713 30.415352 125.732432 -20.503306 1459.273011 -6.130 -6.130 0.000000 3.292383 0.000 0 0.000
36001.00 1422.54 100.138999 0.0000000000000000 0.000000 256.081471 -1170864.731405 30.417587 125.739603 -20.511155 1459.224911 -6.136 -6.136 0.000000 3.292141 0.000 0 0.000
35901.00 1422.32 100.138999 0.0000000000000000 0.000000 256.081471 -1171168.918468 30.419827 125.746779 -20.519018 1459.177244 -6.142 -6.142 0.000000 3.291899 0.000 0 0.000
35801.00 1422.09 100.138999 0.0000000000000000 0.000000 256.081471 -1171473.127953 30.422072 125.753960 -20.526895 1459.130015 -6.149 -6.149 0.000000 3.291656 0.000 0 0.000
35701.00 1421.87 100.138999 0.0000000000000000 0.000000 256.081471 -1171777.359917 30.424322 125.761146 -20.534785 1459.083231 -6.155 -6.155 0.000000 3.291413 0.000 0 0.000
35601.00 1421.64 100.138999 0.0000000000000000 0.000000 256.081471 -1172081.614412 30.426578 125.768338 -20.542690 1459.036898 -6.161 -6.161 0.000000 3.291169 0.000 0 0.000
35501.00 1421.42 100.138999 0.0000000000000000 0.000000 256.081471 -1172385.891494 30.428839 125.775535 -20.550609 1458.991022 -6.168 -6.168 0.000000 3.290924 0.000 0 0.000
35401.00 1421.19 100.138999 0.0000000000000000 0.000000 256.081471 -1172690.191219 30.431107 125.782737 -20.558542 1458.945610 -6.174 -6.174 0.000000 3.290679 0.000 0 0.000
35301.00 1420.97 100.138999 0.0000000000000000 0.000000 256.081471 -1172994.513644 30.433379 125.789945 -20.566490 1458.900667 -6.181 -6.181 0.000000 3.290433 0.000 0 0.000
35201.00 1420.74 100.138999 0.0000000000000000 0.000000 256.081471 -1173298.858825 30.435658 125.797159 -20.574453 1458.856202 -6.187 -6.187 0.000000 3.290187 0.000 0 0.000
35101.00 1420.52 100.138999 0.0000000000000000 0.000000 256.081471 -1173603.226821 30.437942 125.804379 -20.582430 1458.812219 -6.194 -6.194 0.000000 3.289940 0.000 0 0.000
35001.00 1420.29 100.138999 0.0000000000000000 0.000000 256.081471 -1173907.617691 30.440233 125.811605 -20.590424 1458.768728 -6.200 -6.200 0.000000 3.289692 0.000 0 0.000
34901.00 1420.06 100.138999 0.0000000000000000 0.000000 256.081471 -1174212.031493 30.442529 125.818838 -20.598432 1458.725734 -6.207 -6.207 0.000000 3.289444 0.000 0 0.000
34801.00 1419.84 100.138999 0.0000000000000000 0.000000 256.081471 -1174516.468289 30.444831 125.826076 -20.606456 1458.683245 -6.213 -6.213 0.000000 3.289195 0.000 0 0.000
34701.00 1419.61 100.138999 0.0000000000000000 0.000000 256.081471 -1174820.928139 30.447140 125.833321 -20.614496 1458.641268 -6.220 -6.220 0.000000 3.288946 0.000 0 0.000
34601.00 1419.39 100.138999 0.0000000000000000 0.000000 256.081471 -1175125.411106 30.449455 125.840573 -20.622553 1458.599811 -6.227 -6.227 0.000000 3.288696 0.000 0 0.000
34501.00 1419.16 100.138999 0.0000000000000000 0.000000 256.081471 -1175429.917251 30.451776 125.847831 -20.630625 1458.558882 -6.233 -6.233 0.000000 3.288445 0.000 0 0.000
34401.00 1418.93 100.138999 0.0000000000000000 0.000000 256.081471 -1175734.446638 30.454103 125.855096 -20.638714 1458.518488 -6.240 -6.240 0.000000 3.288194 0.000 0 0.000
34301.00 1418.71 100.138999 0.0000000000000000 0.000000 256.081471 -1176038.999332 30.456437 125.862368 -20.646820 1458.478638 -6.247 -6.247 0.000000 3.287942 0.000 0 0.000
34201.00 1418.48 100.138999 0.0000000000000000 0.000000 256.081471 -1176343.575398 30.458777 125.869647 -20.654943 1458.439340 -6.253 -6.253 0.000000 3.287689 0.000 0 0.000
34101.00 1418.25 100.138999 0.0000000000000000 0.000000 256.081471 -1176648.174902 30.461124 125.876934 -20.663083 1458.400602 -6.260 -6.260 0.000000 3.287436 0.000 0 0.000
34001.00 1418.03 100.138999 0.0000000000000000 0.000000 256.081471 -1176952.797911 30.463478 125.884227 -20.671241 1458.362433 -6.267 -6.267 0.000000 3.287182 0.000 0 0.000
33901.00 1417.80 100.138999 0.0000000000000000 0.000000 256.081471 -1177257.444492 30.465839 125.891529 -20.679416 1458.324841 -6.274 -6.274 0.000000 3.286927 0.000 0 0.000
33801.00 1417.57 100.138999 0.0000000000000000 0.000000 256.081471 -1177562.114715 30.468207 125.898838 -20.687610 1458.287836 -6.281 -6.281 0.000000 3.286672 0.000 0 0.000
33701.00 1417.34 100.138999 0.0000000000000000 0.000000 256.081471 -1177866.808650 30.470581 125.906155 -20.695822 1458.251427 -6.288 -6.288 0.000000 3.286416 0.000 0 0.000
33601.00 1417.12 100.138999 0.0000000000000000 0.000000 256.081471 -1178171.526367 30.472963 125.913480 -20.704052 1458.215622 -6.295 -6.295 0.000000 3.286159 0.000 0 0.000
33501.00 1416.89 100.138999 0.0000000000000000 0.000000 256.081471 -1178476.267938 30.475352 125.920814 -20.712301 1458.180433 -6.302 -6.302 0.000000 3.285901 0.000 0 0.000
33401.00 1416.66 100.138999 0.0000000000000000 0.000000 256.081471 -1178781.033436 30.477749 125.928156 -20.720570 1458.145867 -6.309 -6.309 0.000000 3.285643 0.000 0 0.000
33301.00 1416.43 100.138999 0.0000000000000000 0.000000 256.081471 -1179085.822935 30.480152 125.935506 -20.728858 1458.111936 -6.316 -6.316 0.000000 3.285384 0.000 0 0.000
33201.00 1416.20 100.138999 0.0000000000000000 0.000000 256.081471 -1179390.636510 30.482564 125.942866 -20.737165 1458.078650 -6.323 -6.323 0.000000 3.285124 0.000 0 0.000
33101.00 1415.97 100.138999 0.0000000000000000 0.000000 256.081471 -1179695.474237 30.484983 125.950234 -20.745493 1458.046019 -6.330 -6.330 0.000000 3.284863 0.000 0 0.000
33001.00 1415.74 100.138999 0.0000000000000000 0.000000 256.081471 -1180000.336193 30.487410 125.957611 -20.753841 1458.014054 -6.337 -6.337 0.000000 3.284602 0.000 0 0.000
32901.00 1415.51 100.138999 0.0000000000000000 0.000000 256.081471 -1180305.222456 30.489844 125.964998 -20.762209 1457.982765 -6.344 -6.344 0.000000 3.284339 0.000 0 0.000
32801.00 1415.29 100.138999 0.0000000000000000 0.000000 256.081471 -1180610.133107 30.492287 125.972394 -20.770599 1457.952164 -6.351 -6.351 0.000000 3.284076 0.000 0 0.000
