Title: Depleted MORB Mantle of Workmann & Hart 2005

Phase Masses:
Pressure Temperature mass liquid_0 olivine_0 garnet_0 orthopyroxene_0 clinopyroxene_0 feldspar_0 spinel_0 
44001.00 1510.54 100.138999 0.000000 59.080285 12.463578 13.165435 14.316151 0.000000 1.113550 
43901.00 1510.30 100.138999 0.000000 59.078991 12.450044 13.171850 14.323245 0.000000 1.114870 
43801.00 1510.07 100.138999 0.000000 59.077684 12.436411 13.178301 14.330402 0.000000 1.116202 
43701.00 1509.83 100.138999 0.000000 59.076366 12.422677 13.184789 14.337621 0.000000 1.117546 
43601.00 1509.60 100.138999 0.000000 59.075035 12.408842 13.191314 14.344905 0.000000 1.118904 
43501.00 1509.37 100.138999 0.000000 59.073691 12.394904 13.197877 14.352252 0.000000 1.120275 
43401.00 1509.13 100.138999 0.000000 59.072335 12.380862 13.204478 14.359665 0.000000 1.121659 
43301.00 1508.90 100.138999 0.000000 59.070966 12.366716 13.211118 14.367143 0.000000 1.123056 
43201.00 1508.66 100.138999 0.000000 59.069584 12.352463 13.217797 14.374688 0.000000 1.124467 
43101.00 1508.43 100.138999 0.000000 59.068188 12.338104 13.224515 14.382301 0.000000 1.125892 
43001.00 1508.19 100.138999 0.000000 59.066779 12.323637 13.231272 14.389981 0.000000 1.127331 
42901.00 1507.96 100.138999 0.000000 59.065356 12.309060 13.238070 14.397729 0.000000 1.128784 
42801.00 1507.72 100.138999 0.000000 59.063919 12.294373 13.244909 14.405547 0.000000 1.130252 
42701.00 1507.49 100.138999 0.000000 59.062467 12.279574 13.251788 14.413435 0.000000 1.131734 
42601.00 1507.25 100.138999 0.000000 59.061002 12.264662 13.258709 14.421394 0.000000 1.133231 
42501.00 1507.02 100.138999 0.000000 59.059522 12.249637 13.265672 14.429425 0.000000 1.134743 
42401.00 1506.78 100.138999 0.000000 59.058027 12.234496 13.272677 14.437528 0.000000 1.136271 
42301.00 1506.55 100.138999 0.000000 59.056517 12.219238 13.279725 14.445705 0.000000 1.137814 
42201.00 1506.31 100.138999 0.000000 59.054992 12.203862 13.286816 14.453955 0.000000 1.139374 
42101.00 1506.07 100.138999 0.000000 59.053451 12.188368 13.293951 14.462280 0.000000 1.140949 
42001.00 1505.84 100.138999 0.000000 59.051894 12.172752 13.301131 14.470681 0.000000 1.142540 
41901.00 1505.60 100.138999 0.000000 59.050322 12.157015 13.308355 14.479159 0.000000 1.144148 
41801.00 1505.37 100.138999 0.000000 59.048733 12.141155 13.315624 14.487714 0.000000 1.145773 
41701.00 1505.13 100.138999 0.000000 59.047128 12.125170 13.322939 14.496347 0.000000 1.147415 
41601.00 1504.90 100.138999 0.000000 59.045506 12.109059 13.330300 14.505060 0.000000 1.149074 
41501.00 1504.66 100.138999 0.000000 59.043867 12.092820 13.337708 14.513852 0.000000 1.150751 
41401.00 1504.42 100.138999 0.000000 59.042211 12.076453 13.345164 14.522726 0.000000 1.152446 
41301.00 1504.19 100.138999 0.000000 59.040537 12.059955 13.352667 14.531681 0.000000 1.154159 
41201.00 1503.95 100.138999 0.000000 59.038846 12.043325 13.360219 14.540719 0.000000 1.155890 
41101.00 1503.72 100.138999 0.000000 59.037136 12.026562 13.367820 14.549841 0.000000 1.157641 
41001.00 1503.48 100.138999 0.000000 59.035408 12.009664 13.375470 14.559048 0.000000 1.159410 
40901.00 1503.24 100.138999 0.000000 59.033661 11.992629 13.383170 14.568340 0.000000 1.161198 
40801.00 1503.01 100.138999 0.000000 59.031895 11.975457 13.390922 14.577719 0.000000 1.163007 
40701.00 1502.77 100.138999 0.000000 59.030110 11.958144 13.398724 14.587186 0.000000 1.164835 
40601.00 1502.53 100.138999 0.000000 59.028305 11.940690 13.406579 14.596741 0.000000 1.166683 
40501.00 1502.30 100.138999 0.000000 59.026481 11.923093 13.414486 14.606387 0.000000 1.168552 
40401.00 1502.06 100.138999 0.000000 59.024636 11.905352 13.422446 14.616123 0.000000 1.170442 
40301.00 1501.82 100.138999 0.000000 59.022770 11.887463 13.430461 14.625951 0.000000 1.172354 
40201.00 1501.58 100.138999 0.000000 59.020884 11.869427 13.438530 14.635872 0.000000 1.174287 
40101.00 1501.35 100.138999 0.000000 59.018976 11.851240 13.446654 14.645887 0.000000 1.176242 
40001.00 1501.11 100.138999 0.000000 59.017047 11.832902 13.454834 14.655997 0.000000 1.178219 
39901.00 1500.87 100.138999 0.000000 59.015096 11.814409 13.463071 14.666204 0.000000 1.180219 
39801.00 1500.64 100.138999 0.000000 59.013122 11.795761 13.471365 14.676508 0.000000 1.182242 
39701.00 1500.40 100.138999 0.000000 59.011126 11.776956 13.479717 14.686911 0.000000 1.184289 
39601.00 1500.16 100.138999 0.000000 59.009107 11.757991 13.488128 14.697414 0.000000 1.186360 
39501.00 1499.92 100.138999 0.000000 59.007064 11.738864 13.496599 14.708018 0.000000 1.188454 
39401.00 1499.68 100.138999 0.000000 59.004997 11.719574 13.505130 14.718724 0.000000 1.190574 
39301.00 1499.45 100.138999 0.000000 59.002906 11.700119 13.513722 14.729534 0.000000 1.192719 
39201.00 1499.21 100.138999 0.000000 59.000790 11.680496 13.522376 14.740448 0.000000 1.194889 
39101.00 1498.97 100.138999 0.000000 58.998649 11.660703 13.531093 14.751469 0.000000 1.197085 
39001.00 1498.73 100.138999 0.000000 58.996483 11.640738 13.539873 14.762598 0.000000 1.199307 
38901.00 1498.49 100.138999 0.000000 58.994291 11.620599 13.548718 14.773835 0.000000 1.201557 
38801.00 1498.25 100.138999 0.000000 58.992072 11.600284 13.557628 14.785182 0.000000 1.203834 
38701.00 1498.01 100.138999 0.000000 58.989826 11.579790 13.566604 14.796641 0.000000 1.206138 
38601.00 1497.78 100.138999 0.000000 58.987553 11.559115 13.575647 14.808213 0.000000 1.208471 
38501.00 1497.54 100.138999 0.000000 58.985252 11.538256 13.584758 14.819900 0.000000 1.210832 
38401.00 1497.30 100.138999 0.000000 58.982923 11.517213 13.593938 14.831702 0.000000 1.213223 
38301.00 1497.06 100.138999 0.000000 58.980565 11.495980 13.603188 14.843622 0.000000 1.215644 
38201.00 1496.82 100.138999 0.000000 58.978177 11.474558 13.612509 14.855660 0.000000 1.218095 
38101.00 1496.58 100.138999 0.000000 58.975760 11.452942 13.621901 14.867819 0.000000 1.220577 
38001.00 1496.34 100.138999 0.000000 58.973313 11.431130 13.631367 14.880100 0.000000 1.223090 
37901.00 1496.10 100.138999 0.000000 58.970834 11.409120 13.640906 14.892505 0.000000 1.225635 
37801.00 1495.86 100.138999 0.000000 58.968324 11.386909 13.650520 14.905034 0.000000 1.228212 
37701.00 1495.62 100.138999 0.000000 58.965782 11.364494 13.660209 14.917691 0.000000 1.230823 
37601.00 1495.38 100.138999 0.000000 58.963207 11.341873 13.669976 14.930476 0.000000 1.233467 
37501.00 1495.14 100.138999 0.000000 58.960600 11.319042 13.679821 14.943391 0.000000 1.236146 
37401.00 1494.90 100.138999 0.000000 58.957958 11.295999 13.689746 14.956438 0.000000 1.238859 
37301.00 1494.66 100.138999 0.000000 58.955282 11.272740 13.699750 14.969618 0.000000 1.241609 
37201.00 1494.42 100.138999 0.000000 58.952571 11.249264 13.709836 14.982935 0.000000 1.244394 
37101.00 1494.18 100.138999 0.000000 58.949824 11.225566 13.720006 14.996388 0.000000 1.247216 
37001.00 1493.94 100.138999 0.000000 58.947041 11.201644 13.730259 15.009981 0.000000 1.250075 
36901.00 1493.69 100.138999 0.000000 58.944221 11.177494 13.740597 15.023714 0.000000 1.252973 
36801.00 1493.45 100.138999 0.000000 58.941363 11.153113 13.751022 15.037591 0.000000 1.255910 
36701.00 1493.21 100.138999 0.000000 58.938467 11.128499 13.761535 15.051613 0.000000 1.258886 
36601.00 1492.97 100.138999 0.000000 58.935531 11.103647 13.772137 15.065781 0.000000 1.261903 
36501.00 1492.73 100.138999 0.000000 58.932556 11.078554 13.782829 15.080099 0.000000 1.264961 
36401.00 1492.49 100.138999 0.000000 58.929540 11.053217 13.793614 15.094567 0.000000 1.268061 
36301.00 1492.24 100.138999 0.000000 58.926483 11.027632 13.804491 15.109189 0.000000 1.271203 
36201.00 1492.00 100.138999 0.000000 58.923384 11.001796 13.815464 15.123966 0.000000 1.274389 
36101.00 1491.76 100.138999 0.000000 58.920241 10.975704 13.826533 15.138901 0.000000 1.277619 
36001.00 1491.51 100.138999 0.000000 58.917055 10.949354 13.837700 15.153996 0.000000 1.280895 
35901.00 1491.27 100.138999 0.000000 58.913825 10.922740 13.848966 15.169252 0.000000 1.284216 
35801.00 1491.03 100.138999 0.000000 58.910549 10.895860 13.860333 15.184673 0.000000 1.287584 
35701.00 1490.79 100.138999 0.000000 58.907226 10.868710 13.871802 15.200261 0.000000 1.291000 
35601.00 1490.54 100.138999 0.000000 58.903856 10.841284 13.883376 15.216018 0.000000 1.294465 
35501.00 1490.30 100.138999 0.000000 58.900439 10.813579 13.895055 15.231946 0.000000 1.297980 
35401.00 1490.05 100.138999 0.000000 58.896972 10.785592 13.906842 15.248049 0.000000 1.301545 
35301.00 1489.81 100.138999 0.000000 58.893455 10.757316 13.918738 15.264328 0.000000 1.305161 
35201.00 1489.57 100.138999 0.000000 58.889887 10.728749 13.930746 15.280787 0.000000 1.308831 
35101.00 1489.32 100.138999 0.000000 58.886267 10.699885 13.942866 15.297428 0.000000 1.312553 
35001.00 1489.08 100.138999 0.000000 58.882594 10.670720 13.955101 15.314253 0.000000 1.316331 
34901.00 1488.83 100.138999 0.000000 58.878867 10.641248 13.967453 15.331267 0.000000 1.320164 
34801.00 1488.59 100.138999 0.000000 58.875085 10.611467 13.979923 15.348470 0.000000 1.324055 
34701.00 1488.34 100.138999 0.000000 58.871246 10.581369 13.992514 15.365866 0.000000 1.328003 
34601.00 1488.09 100.138999 0.000000 58.867350 10.550951 14.005228 15.383459 0.000000 1.332010 
34501.00 1487.85 100.138999 0.000000 58.863395 10.520208 14.018066 15.401251 0.000000 1.336078 
34401.00 1487.60 100.138999 0.000000 58.859381 10.489133 14.031032 15.419246 0.000000 1.340208 
34301.00 1487.36 100.138999 0.000000 58.855306 10.457722 14.044126 15.437445 0.000000 1.344400 
34201.00 1487.11 100.138999 0.000000 58.851169 10.425969 14.057352 15.455854 0.000000 1.348656 
34101.00 1486.86 100.138999 0.000000 58.846968 10.393869 14.070711 15.474474 0.000000 1.352978 
34001.00 1486.62 100.138999 0.000000 58.842702 10.361415 14.084206 15.493309 0.000000 1.357366 
33901.00 1486.37 100.138999 0.000000 58.838370 10.328603 14.097839 15.512363 0.000000 1.361823 
33801.00 1486.12 100.138999 0.000000 58.833971 10.295426 14.111613 15.531640 0.000000 1.366349 
33701.00 1485.87 100.138999 0.000000 58.829503 10.261878 14.125531 15.551142 0.000000 1.370946 
33601.00 1485.62 100.138999 0.000000 58.824965 10.227952 14.139594 15.570873 0.000000 1.375615 
33501.00 1485.38 100.138999 0.000000 58.820355 10.193643 14.153805 15.590838 0.000000 1.380358 
33401.00 1485.13 100.138999 0.000000 58.815672 10.158944 14.168167 15.611039 0.000000 1.385177 
33301.00 1484.88 100.138999 0.000000 58.810914 10.123848 14.182683 15.631481 0.000000 1.390073 
33201.00 1484.63 100.138999 0.000000 58.806079 10.088349 14.197356 15.652168 0.000000 1.395047 
33101.00 1484.38 100.138999 0.000000 58.801167 10.052439 14.212188 15.673104 0.000000 1.400101 
33001.00 1484.13 100.138999 0.000000 58.796175 10.016112 14.227182 15.694293 0.000000 1.405238 
32901.00 1483.88 100.138999 0.000000 58.791102 9.979359 14.242341 15.715739 0.000000 1.410458 
32801.00 1483.63 100.138999 0.000000 58.785946 9.942174 14.257669 15.737446 0.000000 1.415764 
32701.00 1483.38 100.138999 0.000000 58.780705 9.904549 14.273168 15.759420 0.000000 1.421157 
32601.00 1483.13 100.138999 0.000000 58.775377 9.866477 14.288842 15.781664 0.000000 1.426639 
32501.00 1482.88 100.138999 0.000000 58.769961 9.827948 14.304693 15.804184 0.000000 1.432213 
32401.00 1482.62 100.138999 0.000000 58.764454 9.788956 14.320727 15.826983 0.000000 1.437880 
32301.00 1482.37 100.138999 0.000000 58.758855 9.749491 14.336944 15.850067 0.000000 1.443641 
32201.00 1482.12 100.138999 0.000000 58.753162 9.709545 14.353350 15.873442 0.000000 1.449500 
32101.00 1481.87 100.138999 0.000000 58.747372 9.669110 14.369948 15.897111 0.000000 1.455458 
32001.00 1481.61 100.138999 0.000000 58.741483 9.628176 14.386741 15.921081 0.000000 1.461518 
31901.00 1481.36 100.138999 0.000000 58.735494 9.586734 14.403734 15.945356 0.000000 1.467681 
31801.00 1481.11 100.138999 0.000000 58.729401 9.544775 14.420930 15.969942 0.000000 1.473951 
31701.00 1480.85 100.138999 0.000000 58.723204 9.502288 14.438333 15.994845 0.000000 1.480329 
31601.00 1480.60 100.138999 0.000000 58.716898 9.459265 14.455947 16.020071 0.000000 1.486817 
31501.00 1480.34 100.138999 0.000000 58.710483 9.415695 14.473777 16.045625 0.000000 1.493419 
31401.00 1480.09 100.138999 0.000000 58.703955 9.371568 14.491826 16.071514 0.000000 1.500137 
31301.00 1479.83 100.138999 0.000000 58.697311 9.326872 14.510099 16.097743 0.000000 1.506974 
31201.00 1479.58 100.138999 0.000000 58.690550 9.281598 14.528601 16.124319 0.000000 1.513931 
31101.00 1479.32 100.138999 0.000000 58.683669 9.235733 14.547336 16.151249 0.000000 1.521012 
31001.00 1479.06 100.138999 0.000000 58.676664 9.189267 14.566308 16.178539 0.000000 1.528220 
30901.00 1478.81 100.138999 0.000000 58.669534 9.142187 14.585524 16.206197 0.000000 1.535558 
30801.00 1478.55 100.138999 0.000000 58.662274 9.094482 14.604986 16.234229 0.000000 1.543028 
30701.00 1478.29 100.138999 0.000000 58.654882 9.046139 14.624702 16.262642 0.000000 1.550634 
30601.00 1478.03 100.138999 0.000000 58.647356 8.997145 14.644675 16.291444 0.000000 1.558379 
30501.00 1477.77 100.138999 0.000000 58.639691 8.947488 14.664912 16.320642 0.000000 1.566266 
30401.00 1477.51 100.138999 0.000000 58.631885 8.897153 14.685418 16.350245 0.000000 1.574299 
30301.00 1477.25 100.138999 0.000000 58.623934 8.846128 14.706197 16.380260 0.000000 1.582480 
30201.00 1476.99 100.138999 0.000000 58.615835 8.794398 14.727258 16.410696 0.000000 1.590814 
30101.00 1476.73 100.138999 0.000000 58.607584 8.741948 14.748604 16.441560 0.000000 1.599303 
30001.00 1476.47 100.138999 0.000000 58.599177 8.688764 14.770242 16.472863 0.000000 1.607953 
29901.00 1476.21 100.138999 0.000000 58.590612 8.634831 14.792179 16.504612 0.000000 1.616766 
29801.00 1475.95 100.138999 0.000000 58.581883 8.580132 14.814421 16.536817 0.000000 1.625746 
29701.00 1475.68 100.138999 0.000000 58.572988 8.524651 14.836974 16.569488 0.000000 1.634898 
29601.00 1475.42 100.138999 0.000000 58.563922 8.468372 14.859845 16.602634 0.000000 1.644226 
29501.00 1475.16 100.138999 0.000000 58.554680 8.411278 14.883042 16.636265 0.000000 1.653734 
29401.00 1474.89 100.138999 0.000000 58.545259 8.353351 14.906572 16.670391 0.000000 1.663426 
29301.00 1474.63 100.138999 0.000000 58.535654 8.294573 14.930441 16.705023 0.000000 1.673308 
29201.00 1474.36 100.138999 0.000000 58.525860 8.234926 14.954657 16.740172 0.000000 1.683383 
29101.00 1474.10 100.138999 0.000000 58.515873 8.174390 14.979229 16.775849 0.000000 1.693657 
29001.00 1473.83 100.138999 0.000000 58.505688 8.112946 15.004165 16.812066 0.000000 1.704134 
28901.00 1473.56 100.138999 0.000000 58.495300 8.050573 15.029471 16.848834 0.000000 1.714821 
28801.00 1473.29 100.138999 0.000000 58.484703 7.987250 15.055158 16.886166 0.000000 1.725721 
28701.00 1473.02 100.138999 0.000000 58.473893 7.922957 15.081234 16.924075 0.000000 1.736841 
28601.00 1472.75 100.138999 0.000000 58.462863 7.857670 15.107708 16.962573 0.000000 1.748186 
28501.00 1472.48 100.138999 0.000000 58.451609 7.791367 15.134588 17.001673 0.000000 1.759762 
28401.00 1472.21 100.138999 0.000000 58.440123 7.724025 15.161886 17.041390 0.000000 1.771575 
28301.00 1471.94 100.138999 0.000000 58.428401 7.655618 15.189610 17.081738 0.000000 1.783632 
28201.00 1471.67 100.138999 0.000000 58.416435 7.586123 15.217771 17.122732 0.000000 1.795938 
28101.00 1471.40 100.138999 0.000000 58.404221 7.515514 15.246379 17.164386 0.000000 1.808500 
28001.00 1471.12 100.138999 0.000000 58.391749 7.443762 15.275445 17.206717 0.000000 1.821325 
27901.00 1470.85 100.138999 0.000000 58.379015 7.370842 15.304981 17.249740 0.000000 1.834421 
27801.00 1470.57 100.138999 0.000000 58.366010 7.296725 15.334997 17.293472 0.000000 1.847794 
27701.00 1470.30 100.138999 0.000000 58.352728 7.221381 15.365507 17.337931 0.000000 1.861452 
27601.00 1470.02 100.138999 0.000000 58.339161 7.144781 15.396521 17.383134 0.000000 1.875403 
27501.00 1469.74 100.138999 0.000000 58.325300 7.066892 15.428053 17.429099 0.000000 1.889655 
27401.00 1469.46 100.138999 0.000000 58.311138 6.987683 15.460116 17.475846 0.000000 1.904216 
27301.00 1469.16 100.138999 0.005172 58.292165 6.911298 15.504273 17.507481 0.000000 1.918610 
27201.00 1468.84 100.138999 0.013794 58.269966 6.836311 15.556583 17.529357 0.000000 1.932989 
27101.00 1468.52 100.138999 0.022572 58.247424 6.760022 15.609667 17.551646 0.000000 1.947668 
27001.00 1468.20 100.138999 0.031508 58.224534 6.682399 15.663540 17.574365 0.000000 1.962654 
26901.00 1467.88 100.138999 0.040604 58.201289 6.603407 15.718216 17.597527 0.000000 1.977955 
26801.00 1467.56 100.138999 0.049864 58.177681 6.523010 15.773713 17.621149 0.000000 1.993582 
26701.00 1467.23 100.138999 0.059290 58.153701 6.441172 15.830045 17.645249 0.000000 2.009542 
26601.00 1466.91 100.138999 0.068885 58.129343 6.357854 15.887230 17.669843 0.000000 2.025844 
26501.00 1466.58 100.138999 0.078652 58.104598 6.273017 15.945284 17.694950 0.000000 2.042499 
26401.00 1466.25 100.138999 0.088594 58.079457 6.186619 16.004225 17.720587 0.000000 2.059517 
26301.00 1465.92 100.138999 0.098713 58.053911 6.098620 16.064072 17.746776 0.000000 2.076907 
26201.00 1465.58 100.138999 0.109014 58.027951 6.008974 16.124845 17.773535 0.000000 2.094681 
26101.00 1465.25 100.138999 0.119497 58.001568 5.917636 16.186562 17.800886 0.000000 2.112850 
26001.00 1464.91 100.138999 0.130168 57.974751 5.824560 16.249244 17.828851 0.000000 2.131425 
25901.00 1464.57 100.138999 0.141029 57.947490 5.729697 16.312912 17.857452 0.000000 2.150419 
25801.00 1464.23 100.138999 0.152083 57.919775 5.632996 16.377589 17.886713 0.000000 2.169843 
25701.00 1463.89 100.138999 0.163334 57.891594 5.534404 16.443297 17.916659 0.000000 2.189711 
25601.00 1463.55 100.138999 0.174784 57.862935 5.433867 16.510060 17.947316 0.000000 2.210037 
25501.00 1463.20 100.138999 0.186437 57.833787 5.331329 16.577903 17.978710 0.000000 2.230834 
25401.00 1462.85 100.138999 0.198297 57.804136 5.226730 16.646850 18.010869 0.000000 2.252117 
25301.00 1462.50 100.138999 0.210366 57.773971 5.120010 16.716929 18.043822 0.000000 2.273901 
25201.00 1462.15 100.138999 0.222649 57.743276 5.011105 16.788166 18.077600 0.000000 2.296202 
25101.00 1461.80 100.138999 0.235149 57.712039 4.899950 16.860592 18.112233 0.000000 2.319037 
25001.00 1461.44 100.138999 0.247868 57.680243 4.786475 16.934234 18.147757 0.000000 2.342422 
24901.00 1461.08 100.138999 0.260812 57.647875 4.670609 17.009125 18.184203 0.000000 2.366375 
24801.00 1460.72 100.138999 0.273982 57.614916 4.552278 17.085296 18.221610 0.000000 2.390916 
24701.00 1460.36 100.138999 0.287384 57.581352 4.431404 17.162781 18.260015 0.000000 2.416063 
24601.00 1460.00 100.138999 0.301019 57.547164 4.307906 17.241615 18.299457 0.000000 2.441837 
24501.00 1459.63 100.138999 0.314893 57.512334 4.181701 17.321835 18.339977 0.000000 2.468259 
24401.00 1459.26 100.138999 0.329008 57.476843 4.052700 17.403477 18.381620 0.000000 2.495351 
24301.00 1458.89 100.138999 0.343367 57.440671 3.920812 17.486582 18.424430 0.000000 2.523136 
24201.00 1458.51 100.138999 0.357976 57.403797 3.785941 17.571191 18.468455 0.000000 2.551639 
24101.00 1458.13 100.138999 0.372835 57.366199 3.647988 17.657347 18.513745 0.000000 2.580884 
24001.00 1457.75 100.138999 0.387950 57.327855 3.506848 17.745095 18.560353 0.000000 2.610899 
23901.00 1457.37 100.138999 0.403324 57.288739 3.362411 17.834481 18.608334 0.000000 2.641710 
23801.00 1456.99 100.138999 0.418959 57.248828 3.214565 17.925555 18.657745 0.000000 2.673347 
23701.00 1456.60 100.138999 0.434859 57.208095 3.063189 18.018368 18.708648 0.000000 2.705840 
23601.00 1456.21 100.138999 0.451027 57.166513 2.908158 18.112973 18.761107 0.000000 2.739222 
