Title: Depleted MORB Mantle of Workmann & Hart 2005

Phase Masses:
Pressure Temperature mass liquid_0 olivine_0 garnet_0 orthopyroxene_0 clinopyroxene_0 feldspar_0 spinel_0 
44001.00 1257.58 100.138999 0.000000 59.075011 13.658871 13.828080 12.566950 0.000000 1.010087 
43901.00 1257.40 100.138999 0.000000 59.074449 13.651036 13.835526 12.567252 0.000000 1.010737 
43801.00 1257.22 100.138999 0.000000 59.073883 13.643146 13.843012 12.567567 0.000000 1.011391 
43701.00 1257.04 100.138999 0.000000 59.073312 13.635201 13.850540 12.567896 0.000000 1.012050 
43601.00 1256.85 100.138999 0.000000 59.072737 13.627201 13.858109 12.568238 0.000000 1.012714 
43501.00 1256.67 100.138999 0.000000 59.072158 13.619145 13.865720 12.568593 0.000000 1.013382 
43401.00 1256.49 100.138999 0.000000 59.071574 13.611033 13.873374 12.568962 0.000000 1.014056 
43301.00 1256.31 100.138999 0.000000 59.070986 13.602864 13.881070 12.569345 0.000000 1.014734 
43201.00 1256.13 100.138999 0.000000 59.070393 13.594637 13.888809 12.569741 0.000000 1.015418 
43101.00 1255.94 100.138999 0.000000 59.069796 13.586352 13.896592 12.570152 0.000000 1.016107 
43001.00 1255.76 100.138999 0.000000 59.069193 13.578009 13.904419 12.570577 0.000000 1.016801 
42901.00 1255.58 100.138999 0.000000 59.068587 13.569607 13.912289 12.571017 0.000000 1.017500 
42801.00 1255.40 100.138999 0.000000 59.067975 13.561145 13.920205 12.571471 0.000000 1.018204 
42701.00 1255.21 100.138999 0.000000 59.067358 13.552622 13.928165 12.571939 0.000000 1.018914 
42601.00 1255.03 100.138999 0.000000 59.066736 13.544039 13.936171 12.572423 0.000000 1.019630 
42501.00 1254.85 100.138999 0.000000 59.066110 13.535395 13.944222 12.572921 0.000000 1.020351 
42401.00 1254.67 100.138999 0.000000 59.065478 13.526689 13.952320 12.573435 0.000000 1.021077 
42301.00 1254.48 100.138999 0.000000 59.064841 13.517920 13.960465 12.573964 0.000000 1.021810 
42201.00 1254.30 100.138999 0.000000 59.064198 13.509088 13.968656 12.574509 0.000000 1.022548 
42101.00 1254.12 100.138999 0.000000 59.063551 13.500192 13.976895 12.575069 0.000000 1.023292 
42001.00 1253.94 100.138999 0.000000 59.062898 13.491232 13.985182 12.575645 0.000000 1.024042 
41901.00 1253.76 100.138999 0.000000 59.062239 13.482207 13.993518 12.576237 0.000000 1.024798 
41801.00 1253.57 100.138999 0.000000 59.061575 13.473117 14.001902 12.576845 0.000000 1.025560 
41701.00 1253.39 100.138999 0.000000 59.060905 13.463960 14.010335 12.577470 0.000000 1.026328 
41601.00 1253.21 100.138999 0.000000 59.060230 13.454736 14.018819 12.578111 0.000000 1.027103 
41501.00 1253.03 100.138999 0.000000 59.059549 13.445445 14.027352 12.578769 0.000000 1.027884 
41401.00 1252.84 100.138999 0.000000 59.058861 13.436085 14.035936 12.579444 0.000000 1.028672 
41301.00 1252.66 100.138999 0.000000 59.058168 13.426657 14.044572 12.580136 0.000000 1.029466 
41201.00 1252.48 100.138999 0.000000 59.057469 13.417159 14.053259 12.580845 0.000000 1.030267 
41101.00 1252.29 100.138999 0.000000 59.056764 13.407591 14.061998 12.581572 0.000000 1.031074 
41001.00 1252.11 100.138999 0.000000 59.056052 13.397952 14.070790 12.582316 0.000000 1.031889 
40901.00 1251.93 100.138999 0.000000 59.055334 13.388241 14.079636 12.583078 0.000000 1.032710 
40801.00 1251.75 100.138999 0.000000 59.054609 13.378458 14.088534 12.583859 0.000000 1.033539 
40701.00 1251.56 100.138999 0.000000 59.053878 13.368601 14.097488 12.584657 0.000000 1.034375 
40601.00 1251.38 100.138999 0.000000 59.053140 13.358671 14.106495 12.585474 0.000000 1.035218 
40501.00 1251.20 100.138999 0.000000 59.052396 13.348666 14.115559 12.586310 0.000000 1.036068 
40401.00 1251.02 100.138999 0.000000 59.051645 13.338586 14.124678 12.587164 0.000000 1.036926 
40301.00 1250.83 100.138999 0.000000 59.050886 13.328430 14.133853 12.588038 0.000000 1.037792 
40201.00 1250.65 100.138999 0.000000 59.050121 13.318197 14.143086 12.588931 0.000000 1.038665 
40101.00 1250.47 100.138999 0.000000 59.049348 13.307886 14.152376 12.589843 0.000000 1.039546 
40001.00 1250.28 100.138999 0.000000 59.048569 13.297496 14.161724 12.590775 0.000000 1.040436 
39901.00 1250.10 100.138999 0.000000 59.047781 13.287027 14.171131 12.591727 0.000000 1.041333 
39801.00 1249.92 100.138999 0.000000 59.046987 13.276478 14.180597 12.592699 0.000000 1.042239 
39701.00 1249.73 100.138999 0.000000 59.046184 13.265848 14.190123 12.593692 0.000000 1.043153 
39601.00 1249.55 100.138999 0.000000 59.045374 13.255136 14.199709 12.594705 0.000000 1.044075 
39501.00 1249.37 100.138999 0.000000 59.044556 13.244341 14.209357 12.595739 0.000000 1.045006 
39401.00 1249.19 100.138999 0.000000 59.043730 13.233462 14.219067 12.596794 0.000000 1.045946 
39301.00 1249.00 100.138999 0.000000 59.042896 13.222499 14.228839 12.597871 0.000000 1.046895 
39201.00 1248.82 100.138999 0.000000 59.042053 13.211451 14.238674 12.598969 0.000000 1.047853 
39101.00 1248.64 100.138999 0.000000 59.041202 13.200316 14.248573 12.600089 0.000000 1.048820 
39001.00 1248.45 100.138999 0.000000 59.040343 13.189094 14.258536 12.601231 0.000000 1.049796 
38901.00 1248.27 100.138999 0.000000 59.039474 13.177783 14.268564 12.602395 0.000000 1.050782 
38801.00 1248.09 100.138999 0.000000 59.038597 13.166384 14.278659 12.603582 0.000000 1.051777 
38701.00 1247.90 100.138999 0.000000 59.037712 13.154894 14.288819 12.604792 0.000000 1.052783 
38601.00 1247.72 100.138999 0.000000 59.036816 13.143313 14.299047 12.606025 0.000000 1.053798 
38501.00 1247.54 100.138999 0.000000 59.035912 13.131639 14.309343 12.607281 0.000000 1.054823 
38401.00 1247.35 100.138999 0.000000 59.034998 13.119873 14.319708 12.608561 0.000000 1.055859 
38301.00 1247.17 100.138999 0.000000 59.034075 13.108012 14.330142 12.609865 0.000000 1.056905 
38201.00 1246.98 100.138999 0.000000 59.033142 13.096056 14.340647 12.611193 0.000000 1.057962 
38101.00 1246.80 100.138999 0.000000 59.032199 13.084003 14.351222 12.612545 0.000000 1.059030 
38001.00 1246.62 100.138999 0.000000 59.031245 13.071853 14.361869 12.613923 0.000000 1.060108 
37901.00 1246.43 100.138999 0.000000 59.030282 13.059605 14.372589 12.615325 0.000000 1.061198 
37801.00 1246.25 100.138999 0.000000 59.029308 13.047256 14.383382 12.616753 0.000000 1.062299 
37701.00 1246.07 100.138999 0.000000 59.028323 13.034807 14.394250 12.618207 0.000000 1.063412 
37601.00 1245.88 100.138999 0.000000 59.027328 13.022255 14.405193 12.619686 0.000000 1.064537 
37501.00 1245.70 100.138999 0.000000 59.026322 13.009601 14.416211 12.621192 0.000000 1.065673 
37401.00 1245.51 100.138999 0.000000 59.025304 12.996841 14.427307 12.622725 0.000000 1.066822 
37301.00 1245.33 100.138999 0.000000 59.024275 12.983977 14.438480 12.624284 0.000000 1.067983 
37201.00 1245.15 100.138999 0.000000 59.023235 12.971005 14.449732 12.625871 0.000000 1.069157 
37101.00 1244.96 100.138999 0.000000 59.022183 12.957925 14.461063 12.627485 0.000000 1.070343 
37001.00 1244.78 100.138999 0.000000 59.021118 12.944736 14.472475 12.629127 0.000000 1.071543 
36901.00 1244.59 100.138999 0.000000 59.020042 12.931435 14.483969 12.630798 0.000000 1.072756 
36801.00 1244.41 100.138999 0.000000 59.018953 12.918023 14.495544 12.632497 0.000000 1.073982 
36701.00 1244.23 100.138999 0.000000 59.017851 12.904497 14.507204 12.634225 0.000000 1.075222 
36601.00 1244.04 100.138999 0.000000 59.016737 12.890857 14.518947 12.635982 0.000000 1.076476 
36501.00 1243.86 100.138999 0.000000 59.015609 12.877100 14.530776 12.637770 0.000000 1.077745 
36401.00 1243.67 100.138999 0.000000 59.014468 12.863225 14.542692 12.639587 0.000000 1.079027 
36301.00 1243.49 100.138999 0.000000 59.013313 12.849231 14.554695 12.641434 0.000000 1.080325 
36201.00 1243.30 100.138999 0.000000 59.012145 12.835117 14.566787 12.643313 0.000000 1.081638 
36101.00 1243.12 100.138999 0.000000 59.010962 12.820881 14.578968 12.645223 0.000000 1.082966 
36001.00 1242.93 100.138999 0.000000 59.009765 12.806520 14.591240 12.647164 0.000000 1.084310 
35901.00 1242.75 100.138999 0.000000 59.008553 12.792035 14.603604 12.649137 0.000000 1.085669 
35801.00 1242.56 100.138999 0.000000 59.007327 12.777423 14.616062 12.651143 0.000000 1.087045 
35701.00 1242.38 100.138999 0.000000 59.006085 12.762683 14.628613 12.653181 0.000000 1.088437 
35601.00 1242.19 100.138999 0.000000 59.004827 12.747812 14.641261 12.655253 0.000000 1.089846 
35501.00 1242.01 100.138999 0.000000 59.003554 12.732810 14.654004 12.657358 0.000000 1.091272 
35401.00 1241.82 100.138999 0.000000 59.002265 12.717674 14.666846 12.659498 0.000000 1.092716 
35301.00 1241.64 100.138999 0.000000 59.000959 12.702403 14.679787 12.661672 0.000000 1.094177 
35201.00 1241.45 100.138999 0.000000 58.999637 12.686995 14.692829 12.663881 0.000000 1.095657 
35101.00 1241.27 100.138999 0.000000 58.998297 12.671449 14.705973 12.666125 0.000000 1.097155 
35001.00 1241.08 100.138999 0.000000 58.996940 12.655761 14.719220 12.668406 0.000000 1.098672 
34901.00 1240.90 100.138999 0.000000 58.995566 12.639932 14.732571 12.670723 0.000000 1.100208 
34801.00 1240.71 100.138999 0.000000 58.994173 12.623958 14.746029 12.673076 0.000000 1.101763 
34701.00 1240.53 100.138999 0.000000 58.992761 12.607838 14.759594 12.675467 0.000000 1.103339 
34601.00 1240.34 100.138999 0.000000 58.991331 12.591569 14.773268 12.677896 0.000000 1.104935 
34501.00 1240.16 100.138999 0.000000 58.989882 12.575150 14.787052 12.680364 0.000000 1.106551 
34401.00 1239.97 100.138999 0.000000 58.988413 12.558579 14.800948 12.682870 0.000000 1.108189 
34301.00 1239.78 100.138999 0.000000 58.986924 12.541853 14.814958 12.685416 0.000000 1.109849 
34201.00 1239.60 100.138999 0.000000 58.985415 12.524970 14.829082 12.688001 0.000000 1.111530 
34101.00 1239.41 100.138999 0.000000 58.983885 12.507929 14.843324 12.690627 0.000000 1.113234 
34001.00 1239.23 100.138999 0.000000 58.982334 12.490727 14.857684 12.693295 0.000000 1.114960 
33901.00 1239.04 100.138999 0.000000 58.980761 12.473361 14.872163 12.696003 0.000000 1.116710 
33801.00 1238.85 100.138999 0.000000 58.979166 12.455830 14.886765 12.698755 0.000000 1.118484 
33701.00 1238.67 100.138999 0.000000 58.977548 12.438130 14.901490 12.701548 0.000000 1.120283 
33601.00 1238.48 100.138999 0.000000 58.975907 12.420261 14.916340 12.704386 0.000000 1.122106 
33501.00 1238.29 100.138999 0.000000 58.974243 12.402218 14.931317 12.707267 0.000000 1.123954 
33401.00 1238.11 100.138999 0.000000 58.972555 12.384000 14.946423 12.710193 0.000000 1.125829 
33301.00 1237.92 100.138999 0.000000 58.970842 12.365604 14.961660 12.713164 0.000000 1.127729 
33201.00 1237.73 100.138999 0.000000 58.969104 12.347027 14.977030 12.716181 0.000000 1.129657 
33101.00 1237.55 100.138999 0.000000 58.967341 12.328267 14.992534 12.719245 0.000000 1.131612 
33001.00 1237.36 100.138999 0.000000 58.965551 12.309320 15.008176 12.722356 0.000000 1.133596 
32901.00 1237.17 100.138999 0.000000 58.963735 12.290185 15.023956 12.725515 0.000000 1.135608 
32801.00 1236.99 100.138999 0.000000 58.961891 12.270858 15.039877 12.728723 0.000000 1.137650 
32701.00 1236.80 100.138999 0.000000 58.960020 12.251337 15.055942 12.731980 0.000000 1.139721 
32601.00 1236.61 100.138999 0.000000 58.958120 12.231618 15.072152 12.735287 0.000000 1.141823 
32501.00 1236.42 100.138999 0.000000 58.956190 12.211698 15.088509 12.738645 0.000000 1.143957 
32401.00 1236.24 100.138999 0.000000 58.954232 12.191574 15.105017 12.742054 0.000000 1.146122 
32301.00 1236.05 100.138999 0.000000 58.952242 12.171243 15.121677 12.745516 0.000000 1.148321 
32201.00 1235.86 100.138999 0.000000 58.950222 12.150702 15.138491 12.749032 0.000000 1.150552 
32101.00 1235.67 100.138999 0.000000 58.948170 12.129948 15.155463 12.752601 0.000000 1.152818 
32001.00 1235.48 100.138999 0.000000 58.946085 12.108976 15.172595 12.756225 0.000000 1.155118 
31901.00 1235.30 100.138999 0.000000 58.943967 12.087784 15.189889 12.759904 0.000000 1.157455 
31801.00 1235.11 100.138999 0.000000 58.941815 12.066368 15.207348 12.763641 0.000000 1.159828 
31701.00 1234.92 100.138999 0.000000 58.939628 12.044724 15.224975 12.767434 0.000000 1.162238 
31601.00 1234.73 100.138999 0.000000 58.937406 12.022848 15.242773 12.771286 0.000000 1.164686 
31501.00 1234.54 100.138999 0.000000 58.935147 12.000737 15.260744 12.775198 0.000000 1.167173 
31401.00 1234.35 100.138999 0.000000 58.932851 11.978387 15.278891 12.779169 0.000000 1.169701 
31301.00 1234.17 100.138999 0.000000 58.930517 11.955794 15.297218 12.783202 0.000000 1.172269 
31201.00 1233.98 100.138999 0.000000 58.928144 11.932954 15.315727 12.787296 0.000000 1.174878 
31101.00 1233.79 100.138999 0.000000 58.925731 11.909862 15.334421 12.791454 0.000000 1.177531 
31001.00 1233.60 100.138999 0.000000 58.923277 11.886514 15.353304 12.795676 0.000000 1.180227 
30901.00 1233.41 100.138999 0.000000 58.920781 11.862906 15.372380 12.799963 0.000000 1.182968 
30801.00 1233.22 100.138999 0.000000 58.918243 11.839034 15.391650 12.804317 0.000000 1.185755 
30701.00 1233.03 100.138999 0.000000 58.915661 11.814892 15.411119 12.808738 0.000000 1.188589 
30601.00 1232.84 100.138999 0.000000 58.913034 11.790476 15.430791 12.813227 0.000000 1.191471 
30501.00 1232.65 100.138999 0.000000 58.910361 11.765781 15.450669 12.817786 0.000000 1.194402 
30401.00 1232.46 100.138999 0.000000 58.907641 11.740803 15.470756 12.822417 0.000000 1.197383 
30301.00 1232.27 100.138999 0.000000 58.904872 11.715535 15.491057 12.827119 0.000000 1.200416 
30201.00 1232.08 100.138999 0.000000 58.902055 11.689974 15.511575 12.831894 0.000000 1.203502 
30101.00 1231.89 100.138999 0.000000 58.899186 11.664113 15.532314 12.836744 0.000000 1.206642 
30001.00 1231.70 100.138999 0.000000 58.896266 11.637947 15.553279 12.841670 0.000000 1.209837 
29901.00 1231.51 100.138999 0.000000 58.893293 11.611470 15.574474 12.846673 0.000000 1.213088 
29801.00 1231.32 100.138999 0.000000 58.890266 11.584678 15.595902 12.851755 0.000000 1.216398 
29701.00 1231.12 100.138999 0.000000 58.887183 11.557563 15.617569 12.856917 0.000000 1.219768 
29601.00 1230.93 100.138999 0.000000 58.884042 11.530120 15.639479 12.862160 0.000000 1.223198 
29501.00 1230.74 100.138999 0.000000 58.880843 11.502342 15.661637 12.867486 0.000000 1.226691 
29401.00 1230.55 100.138999 0.000000 58.877584 11.474224 15.684046 12.872896 0.000000 1.230248 
29301.00 1230.36 100.138999 0.000000 58.874264 11.445758 15.706713 12.878393 0.000000 1.233871 
29201.00 1230.17 100.138999 0.000000 58.870880 11.416939 15.729643 12.883976 0.000000 1.237561 
29101.00 1229.97 100.138999 0.000000 58.867431 11.387759 15.752839 12.889649 0.000000 1.241321 
29001.00 1229.78 100.138999 0.000000 58.863917 11.358210 15.776309 12.895413 0.000000 1.245151 
28901.00 1229.59 100.138999 0.000000 58.860334 11.328287 15.800056 12.901269 0.000000 1.249053 
28801.00 1229.40 100.138999 0.000000 58.856681 11.297981 15.824087 12.907220 0.000000 1.253030 
28701.00 1229.20 100.138999 0.000000 58.852957 11.267285 15.848407 12.913266 0.000000 1.257084 
28601.00 1229.01 100.138999 0.000000 58.849159 11.236191 15.873023 12.919410 0.000000 1.261215 
28501.00 1228.82 100.138999 0.000000 58.845286 11.204691 15.897940 12.925654 0.000000 1.265427 
28401.00 1228.62 100.138999 0.000000 58.841336 11.172777 15.923164 12.932000 0.000000 1.269722 
28301.00 1228.43 100.138999 0.000000 58.837306 11.140441 15.948703 12.938450 0.000000 1.274100 
28201.00 1228.24 100.138999 0.000000 58.833194 11.107673 15.974561 12.945005 0.000000 1.278566 
28101.00 1228.04 100.138999 0.000000 58.829000 11.074464 16.000747 12.951668 0.000000 1.283121 
28001.00 1227.85 100.138999 0.000000 58.824719 11.040807 16.027266 12.958441 0.000000 1.287767 
27901.00 1227.65 100.138999 0.000000 58.820350 11.006690 16.054126 12.965326 0.000000 1.292506 
27801.00 1227.46 100.138999 0.000000 58.815891 10.972105 16.081335 12.972325 0.000000 1.297342 
27701.00 1227.26 100.138999 0.000000 58.811339 10.937042 16.108899 12.979442 0.000000 1.302277 
27601.00 1227.07 100.138999 0.000000 58.806692 10.901490 16.136827 12.986677 0.000000 1.307313 
27501.00 1226.87 100.138999 0.000000 58.801947 10.865439 16.165125 12.994034 0.000000 1.312453 
27401.00 1226.68 100.138999 0.000000 58.797102 10.828879 16.193803 13.001516 0.000000 1.317700 
27301.00 1226.48 100.138999 0.000000 58.792153 10.791798 16.222868 13.009124 0.000000 1.323056 
27201.00 1226.28 100.138999 0.000000 58.787099 10.754184 16.252329 13.016861 0.000000 1.328525 
27101.00 1226.09 100.138999 0.000000 58.781936 10.716027 16.282195 13.024731 0.000000 1.334110 
27001.00 1225.89 100.138999 0.000000 58.776661 10.677315 16.312475 13.032736 0.000000 1.339813 
26901.00 1225.69 100.138999 0.000000 58.771271 10.638034 16.343177 13.040878 0.000000 1.345639 
26801.00 1225.50 100.138999 0.000000 58.765764 10.598172 16.374312 13.049162 0.000000 1.351589 
26701.00 1225.30 100.138999 0.000000 58.760135 10.557717 16.405889 13.057589 0.000000 1.357669 
26601.00 1225.10 100.138999 0.000000 58.754382 10.516655 16.437918 13.066163 0.000000 1.363880 
26501.00 1224.90 100.138999 0.000000 58.748501 10.474973 16.470410 13.074888 0.000000 1.370227 
26401.00 1224.70 100.138999 0.000000 58.742489 10.432655 16.503375 13.083767 0.000000 1.376714 
26301.00 1224.50 100.138999 0.000000 58.736341 10.389688 16.536823 13.092802 0.000000 1.383344 
26201.00 1224.31 100.138999 0.000000 58.730056 10.346057 16.570767 13.101998 0.000000 1.390121 
26101.00 1224.11 100.138999 0.000000 58.723627 10.301747 16.605217 13.111359 0.000000 1.397049 
26001.00 1223.91 100.138999 0.000000 58.717052 10.256741 16.640186 13.120887 0.000000 1.404133 
25901.00 1223.71 100.138999 0.000000 58.710327 10.211024 16.675684 13.130587 0.000000 1.411377 
25801.00 1223.51 100.138999 0.000000 58.703447 10.164579 16.711726 13.140463 0.000000 1.418784 
25701.00 1223.30 100.138999 0.000000 58.696408 10.117389 16.748323 13.150519 0.000000 1.426360 
25601.00 1223.10 100.138999 0.000000 58.689206 10.069436 16.785490 13.160758 0.000000 1.434110 
25501.00 1222.90 100.138999 0.000000 58.681836 10.020702 16.823238 13.171186 0.000000 1.442037 
25401.00 1222.70 100.138999 0.000000 58.674293 9.971168 16.861583 13.181807 0.000000 1.450148 
25301.00 1222.50 100.138999 0.000000 58.666572 9.920816 16.900538 13.192625 0.000000 1.458447 
25201.00 1222.29 100.138999 0.000000 58.658669 9.869626 16.940119 13.203646 0.000000 1.466939 
25101.00 1222.09 100.138999 0.000000 58.650579 9.817577 16.980340 13.214873 0.000000 1.475630 
25001.00 1221.89 100.138999 0.000000 58.642295 9.764649 17.021217 13.226312 0.000000 1.484526 
24901.00 1221.68 100.138999 0.000000 58.633813 9.710820 17.062766 13.237968 0.000000 1.493632 
24801.00 1221.48 100.138999 0.000000 58.625128 9.656068 17.105003 13.249847 0.000000 1.502953 
24701.00 1221.28 100.138999 0.000000 58.616232 9.600371 17.147945 13.261953 0.000000 1.512497 
24601.00 1221.07 100.138999 0.000000 58.607121 9.543704 17.191610 13.274293 0.000000 1.522270 
24501.00 1220.87 100.138999 0.000000 58.597788 9.486045 17.236016 13.286873 0.000000 1.532277 
24401.00 1220.66 100.138999 0.000000 58.588227 9.427367 17.281181 13.299697 0.000000 1.542526 
24301.00 1220.45 100.138999 0.000000 58.578431 9.367646 17.327124 13.312774 0.000000 1.553024 
24201.00 1220.25 100.138999 0.000000 58.568394 9.306856 17.373865 13.326108 0.000000 1.563777 
24101.00 1220.04 100.138999 0.000000 58.558109 9.244968 17.421423 13.339706 0.000000 1.574793 
24001.00 1219.83 100.138999 0.000000 58.547568 9.181956 17.469820 13.353576 0.000000 1.586079 
23901.00 1219.62 100.138999 0.000000 58.536764 9.117790 17.519077 13.367725 0.000000 1.597643 
23801.00 1219.41 100.138999 0.000000 58.525690 9.052441 17.569216 13.382159 0.000000 1.609494 
23701.00 1219.20 100.138999 0.000000 58.514337 8.985878 17.620259 13.396886 0.000000 1.621639 
