Title: Depleted MORB Mantle of Workmann & Hart 2005

Liquid Composition:
Pressure Temperature mass SiO2 TiO2 Al2O3 Fe2O3 Cr2O3 FeO MnO MgO NiO CaO Na2O 
44001.00 1558.52 1.107284 40.1207 1.5999 1.34921 0.61768 0.552994 17.7984 0.173742 26.2166 0.116007 4.04028 7.4145
43901.00 1558.30 0.996169 40.1266 1.60036 1.37044 0.61701 0.554079 17.7754 0.173396 26.1959 0.115747 4.04686 7.42419
43801.00 1558.08 0.992098 40.1324 1.60079 1.39195 0.616347 0.555148 17.7524 0.173046 26.1752 0.115484 4.05351 7.43371
43701.00 1557.85 0.988105 40.1383 1.6012 1.41374 0.615691 0.5562 17.7293 0.17269 26.1544 0.115217 4.06022 7.44306
43601.00 1557.63 0.984191 40.1441 1.60157 1.43582 0.61504 0.557235 17.7062 0.172329 26.1336 0.114948 4.06699 7.45222
43501.00 1557.41 0.980356 40.1498 1.60192 1.45818 0.614397 0.558252 17.6831 0.171964 26.1127 0.114675 4.07382 7.46121
43401.00 1557.19 0.976600 40.1556 1.60223 1.48083 0.613759 0.559252 17.6599 0.171593 26.0917 0.114399 4.08072 7.47002
43301.00 1556.96 0.972923 40.1613 1.60252 1.50378 0.613128 0.560234 17.6367 0.171217 26.0707 0.11412 4.08769 7.47864
43201.00 1556.74 0.969326 40.167 1.60278 1.52701 0.612504 0.561198 17.6134 0.170837 26.0496 0.113837 4.09472 7.48707
43101.00 1556.51 0.965808 40.1726 1.603 1.55054 0.611886 0.562143 17.5901 0.170451 26.0285 0.113552 4.10182 7.49532
43001.00 1556.29 0.962369 40.1783 1.6032 1.57436 0.611274 0.56307 17.5668 0.17006 26.0074 0.113263 4.10899 7.50338
42901.00 1556.06 0.959010 40.1839 1.60336 1.59848 0.61067 0.563977 17.5434 0.169664 25.9861 0.112971 4.11622 7.51126
42801.00 1555.83 0.955731 40.1894 1.60349 1.6229 0.610072 0.564865 17.52 0.169264 25.9648 0.112676 4.12353 7.51893
42701.00 1555.61 0.952531 40.195 1.60359 1.64762 0.60948 0.565734 17.4965 0.168858 25.9435 0.112378 4.1309 7.52642
42601.00 1555.38 0.949412 40.2005 1.60366 1.67265 0.608895 0.566582 17.473 0.168447 25.9221 0.112076 4.13835 7.53371
42501.00 1555.15 0.946373 40.206 1.6037 1.69798 0.608317 0.56741 17.4495 0.168031 25.9006 0.111771 4.14587 7.5408
42401.00 1554.92 0.943414 40.2114 1.60371 1.72362 0.607746 0.568218 17.426 0.16761 25.8791 0.111463 4.15345 7.5477
42301.00 1554.69 0.940535 40.2168 1.60368 1.74956 0.607181 0.569004 17.4023 0.167183 25.8575 0.111152 4.16112 7.55439
42201.00 1554.46 0.937737 40.2222 1.60362 1.77582 0.606624 0.56977 17.3787 0.166752 25.8359 0.110838 4.16885 7.56088
42101.00 1554.23 0.935020 40.2276 1.60353 1.80239 0.606073 0.570514 17.355 0.166316 25.8142 0.11052 4.17667 7.56717
42001.00 1554.00 0.932384 40.2329 1.6034 1.82927 0.605528 0.571236 17.3313 0.165874 25.7925 0.110199 4.18455 7.57325
41901.00 1553.77 0.929829 40.2382 1.60325 1.85647 0.604991 0.571936 17.3075 0.165428 25.7706 0.109875 4.19251 7.57913
41801.00 1553.54 0.927356 40.2435 1.60305 1.88398 0.604461 0.572614 17.2837 0.164977 25.7488 0.109548 4.20055 7.58479
41701.00 1553.31 0.924964 40.2488 1.60283 1.91181 0.603937 0.573269 17.2599 0.16452 25.7268 0.109218 4.20867 7.59025
41601.00 1553.07 0.922655 40.254 1.60257 1.93996 0.60342 0.573901 17.236 0.164058 25.7048 0.108884 4.21687 7.59549
41501.00 1552.84 0.920428 40.2592 1.60228 1.96843 0.60291 0.574509 17.2121 0.163592 25.6828 0.108548 4.22514 7.60052
41401.00 1552.61 0.918283 40.2643 1.60195 1.99723 0.602408 0.575094 17.1882 0.16312 25.6607 0.108208 4.2335 7.60533
41301.00 1552.37 0.916222 40.2695 1.60159 2.02634 0.601912 0.575655 17.1642 0.162644 25.6385 0.107865 4.24194 7.60992
41201.00 1552.14 0.914243 40.2746 1.60119 2.05578 0.601423 0.576192 17.1401 0.162162 25.6163 0.107519 4.25045 7.6143
41101.00 1551.90 0.912348 40.2797 1.60076 2.08555 0.600941 0.576704 17.1161 0.161676 25.594 0.10717 4.25906 7.61845
41001.00 1551.67 0.910537 40.2847 1.60029 2.11564 0.600465 0.577192 17.092 0.161184 25.5716 0.106817 4.26774 7.62239
40901.00 1551.43 0.908810 40.2897 1.59979 2.14607 0.599997 0.577654 17.0678 0.160688 25.5492 0.106462 4.27651 7.62609
40801.00 1551.19 0.907167 40.2947 1.59925 2.17682 0.599536 0.578091 17.0436 0.160186 25.5267 0.106103 4.28536 7.62957
40701.00 1550.95 0.905609 40.2997 1.59868 2.2079 0.599082 0.578502 17.0194 0.15968 25.5042 0.105742 4.2943 7.63283
40601.00 1550.72 0.904137 40.3046 1.59807 2.23931 0.598635 0.578887 16.9952 0.159169 25.4815 0.105377 4.30333 7.63585
40501.00 1550.48 0.902750 40.3096 1.59743 2.27105 0.598195 0.579245 16.9709 0.158653 25.4589 0.10501 4.31245 7.63865
40401.00 1550.24 0.901449 40.3145 1.59674 2.30313 0.597761 0.579577 16.9466 0.158132 25.4361 0.104639 4.32165 7.64121
40301.00 1550.00 0.900235 40.3193 1.59602 2.33553 0.597335 0.579881 16.9222 0.157606 25.4134 0.104265 4.33094 7.64354
40201.00 1549.76 0.899108 40.3242 1.59527 2.36828 0.596916 0.580159 16.8978 0.157076 25.3905 0.103889 4.34033 7.64563
40101.00 1549.51 0.898068 40.329 1.59448 2.40135 0.596504 0.580408 16.8734 0.15654 25.3676 0.103509 4.3498 7.64748
40001.00 1549.27 0.897116 40.3338 1.59365 2.43477 0.596098 0.58063 16.8489 0.156001 25.3446 0.103127 4.35937 7.64909
39901.00 1549.03 0.896252 40.3386 1.59278 2.46852 0.5957 0.580823 16.8244 0.155456 25.3215 0.102741 4.36903 7.65047
39801.00 1548.79 0.895477 40.3433 1.59188 2.5026 0.595309 0.580988 16.7998 0.154907 25.2984 0.102353 4.37879 7.6516
39701.00 1548.54 0.894791 40.348 1.59093 2.53702 0.594924 0.581124 16.7753 0.154353 25.2753 0.101962 4.38864 7.65249
39601.00 1548.30 0.894196 40.3527 1.58995 2.57178 0.594547 0.581231 16.7506 0.153794 25.252 0.101568 4.39858 7.65313
39501.00 1548.05 0.893690 40.3574 1.58894 2.60687 0.594176 0.581308 16.726 0.153231 25.2287 0.101171 4.40863 7.65353
39401.00 1547.81 0.893276 40.3621 1.58788 2.64231 0.593813 0.581356 16.7013 0.152663 25.2054 0.100772 4.41877 7.65367
39301.00 1547.56 0.892953 40.3667 1.58678 2.67808 0.593456 0.581374 16.6766 0.152091 25.1819 0.100369 4.42901 7.65357
39201.00 1547.32 0.892722 40.3714 1.58565 2.71419 0.593106 0.581361 16.6518 0.151515 25.1585 0.0999644 4.43934 7.65322
39101.00 1547.07 0.892584 40.376 1.58448 2.75064 0.592763 0.581317 16.627 0.150934 25.1349 0.0995567 4.44978 7.65261
39001.00 1546.82 0.892539 40.3806 1.58327 2.78742 0.592427 0.581243 16.6022 0.150349 25.1113 0.0991462 4.46033 7.65175
38901.00 1546.57 0.892588 40.3851 1.58202 2.82454 0.592097 0.581137 16.5774 0.149759 25.0876 0.0987331 4.47097 7.65063
38801.00 1546.32 0.892732 40.3897 1.58073 2.86201 0.591775 0.581 16.5525 0.149165 25.0639 0.0983174 4.48172 7.64925
38701.00 1546.07 0.892971 40.3942 1.5794 2.8998 0.591459 0.58083 16.5276 0.148567 25.0401 0.0978992 4.49257 7.64762
38601.00 1545.82 0.893306 40.3988 1.57803 2.93794 0.59115 0.580629 16.5026 0.147965 25.0162 0.0974783 4.50353 7.64572
38501.00 1545.57 0.893738 40.4033 1.57662 2.97642 0.590847 0.580395 16.4776 0.147358 24.9923 0.097055 4.51459 7.64356
38401.00 1545.32 0.894267 40.4078 1.57517 3.01523 0.590551 0.580129 16.4526 0.146747 24.9683 0.0966291 4.52576 7.64114
38301.00 1545.07 0.894895 40.4123 1.57368 3.05437 0.590262 0.57983 16.4275 0.146133 24.9442 0.0962009 4.53704 7.63846
38201.00 1544.81 0.895621 40.4167 1.57216 3.09386 0.589979 0.579497 16.4024 0.145514 24.9201 0.0957702 4.54843 7.63551
38101.00 1544.56 0.896447 40.4212 1.57059 3.13368 0.589703 0.579131 16.3773 0.144892 24.8959 0.0953371 4.55993 7.63229
38001.00 1544.31 0.897374 40.4257 1.56898 3.17383 0.589433 0.578731 16.3522 0.144265 24.8717 0.0949016 4.57155 7.6288
37901.00 1544.05 0.898402 40.4301 1.56733 3.21432 0.589169 0.578297 16.327 0.143635 24.8474 0.0944639 4.58327 7.62504
37801.00 1543.79 0.899532 40.4346 1.56564 3.25514 0.588912 0.577829 16.3018 0.143001 24.823 0.0940239 4.59511 7.62101
37701.00 1543.54 0.900765 40.439 1.5639 3.2963 0.588661 0.577326 16.2765 0.142363 24.7986 0.0935817 4.60706 7.61671
37601.00 1543.28 0.902102 40.4434 1.56213 3.33779 0.588417 0.576788 16.2513 0.141722 24.7741 0.0931372 4.61913 7.61213
37501.00 1543.02 0.903544 40.4479 1.56032 3.37961 0.588178 0.576215 16.226 0.141077 24.7495 0.0926906 4.63132 7.60728
37401.00 1542.76 0.905092 40.4523 1.55846 3.42176 0.587946 0.575607 16.2006 0.140428 24.7249 0.0922419 4.64362 7.60215
37301.00 1542.51 0.906746 40.4567 1.55657 3.46424 0.58772 0.574964 16.1753 0.139776 24.7002 0.0917912 4.65605 7.59674
37201.00 1542.25 0.908509 40.4611 1.55463 3.50705 0.587499 0.574284 16.1499 0.139121 24.6754 0.0913383 4.66859 7.59105
37101.00 1541.98 0.910380 40.4655 1.55265 3.55018 0.587285 0.573568 16.1245 0.138462 24.6506 0.0908835 4.68125 7.58508
37001.00 1541.72 0.912360 40.4699 1.55063 3.59364 0.587076 0.572816 16.099 0.137799 24.6258 0.0904268 4.69404 7.57883
36901.00 1541.46 0.914451 40.4744 1.54857 3.63743 0.586873 0.572028 16.0735 0.137134 24.6008 0.0899681 4.70695 7.5723
36801.00 1541.20 0.916655 40.4788 1.54646 3.68154 0.586675 0.571203 16.048 0.136465 24.5758 0.0895076 4.71999 7.56549
36701.00 1540.93 0.918971 40.4832 1.54432 3.72597 0.586483 0.57034 16.0225 0.135794 24.5508 0.0890453 4.73315 7.55838
36601.00 1540.67 0.921401 40.4876 1.54213 3.77072 0.586297 0.569441 15.997 0.135119 24.5257 0.0885811 4.74643 7.551
36501.00 1540.41 0.923946 40.4921 1.5399 3.8158 0.586116 0.568504 15.9714 0.134441 24.5005 0.0881153 4.75985 7.54332
36401.00 1540.14 0.926608 40.4965 1.53762 3.86119 0.58594 0.56753 15.9458 0.133761 24.4753 0.0876477 4.77339 7.53536
36301.00 1539.87 0.929387 40.501 1.53531 3.9069 0.585769 0.566518 15.9201 0.133077 24.45 0.0871786 4.78707 7.52711
36201.00 1539.61 0.932285 40.5055 1.53295 3.95292 0.585603 0.565467 15.8945 0.132391 24.4246 0.0867078 4.80087 7.51856
36101.00 1539.34 0.935302 40.5099 1.53055 3.99925 0.585442 0.564379 15.8688 0.131702 24.3992 0.0862354 4.81481 7.50973
36001.00 1539.07 0.938442 40.5144 1.5281 4.0459 0.585286 0.563252 15.8431 0.13101 24.3737 0.0857616 4.82888 7.5006
35901.00 1538.80 0.941703 40.5189 1.52562 4.09286 0.585134 0.562087 15.8174 0.130316 24.3481 0.0852863 4.84309 7.49118
35801.00 1538.53 0.945089 40.5234 1.52309 4.14013 0.584987 0.560883 15.7916 0.129619 24.3225 0.0848096 4.85743 7.48147
35701.00 1538.26 0.948600 40.528 1.52052 4.1877 0.584844 0.55964 15.7658 0.12892 24.2969 0.0843315 4.87191 7.47146
35601.00 1537.98 0.952238 40.5325 1.5179 4.23557 0.584706 0.558359 15.74 0.128218 24.2712 0.0838521 4.88653 7.46116
35501.00 1537.71 0.956004 40.5371 1.51525 4.28375 0.584572 0.557038 15.7142 0.127515 24.2454 0.0833714 4.90129 7.45056
35401.00 1537.44 0.959899 40.5417 1.51254 4.33223 0.584441 0.555677 15.6883 0.126808 24.2195 0.0828895 4.91619 7.43966
35301.00 1537.16 0.963925 40.5463 1.5098 4.38101 0.584314 0.554278 15.6625 0.1261 24.1936 0.0824064 4.93123 7.42846
35201.00 1536.89 0.968085 40.5509 1.50701 4.43008 0.584191 0.552839 15.6366 0.12539 24.1677 0.0819222 4.94641 7.41696
35101.00 1536.61 0.972378 40.5556 1.50418 4.47945 0.584072 0.55136 15.6107 0.124678 24.1416 0.0814369 4.96174 7.40517
35001.00 1536.33 0.976807 40.5603 1.50131 4.5291 0.583955 0.549841 15.5847 0.123964 24.1155 0.0809506 4.97722 7.39307
34901.00 1536.05 0.981373 40.565 1.49839 4.57905 0.583842 0.548283 15.5588 0.123248 24.0894 0.0804633 4.99284 7.38067
34801.00 1535.78 0.986079 40.5698 1.49543 4.62929 0.583731 0.546684 15.5328 0.12253 24.0632 0.0799751 5.00861 7.36797
34701.00 1535.50 0.990925 40.5745 1.49243 4.67981 0.583624 0.545046 15.5068 0.12181 24.0369 0.079486 5.02453 7.35497
34601.00 1535.21 0.995914 40.5793 1.48938 4.73061 0.583519 0.543367 15.4808 0.121089 24.0106 0.078996 5.0406 7.34167
34501.00 1534.93 1.001047 40.5842 1.48629 4.7817 0.583416 0.541648 15.4548 0.120366 23.9842 0.0785053 5.05682 7.32806
34401.00 1534.65 1.005591 40.5891 1.48316 4.83306 0.583315 0.539889 15.4287 0.119642 23.9578 0.0780138 5.07319 7.31415
34301.00 1534.37 1.005676 40.594 1.47998 4.8847 0.583217 0.53809 15.4027 0.118916 23.9313 0.0775216 5.08973 7.29993
34201.00 1534.08 1.005761 40.5989 1.47675 4.93661 0.58312 0.536249 15.3766 0.118189 23.9047 0.0770288 5.10641 7.2854
34101.00 1533.80 1.005846 40.6039 1.47349 4.98878 0.583026 0.534368 15.3505 0.117461 23.8781 0.0765353 5.12326 7.27056
34001.00 1533.51 1.005931 40.6089 1.47018 5.04123 0.582934 0.532446 15.3244 0.116732 23.8515 0.0760413 5.14027 7.25541
33901.00 1533.22 1.006015 40.614 1.46682 5.09394 0.582844 0.530484 15.2982 0.116001 23.8247 0.0755468 5.15744 7.23995
33801.00 1532.93 1.006100 40.6191 1.46342 5.14691 0.582755 0.52848 15.2721 0.115269 23.798 0.0750519 5.17477 7.22418
33701.00 1532.64 1.006184 40.6243 1.45998 5.20014 0.582667 0.526436 15.2459 0.114537 23.7711 0.0745565 5.19227 7.2081
33601.00 1532.35 1.006268 40.6295 1.45649 5.25363 0.58258 0.524351 15.2197 0.113803 23.7442 0.0740608 5.20993 7.1917
33501.00 1532.06 1.006352 40.6347 1.45296 5.30737 0.582494 0.522224 15.1936 0.113068 23.7173 0.0735647 5.22776 7.175
33401.00 1531.77 1.006436 40.64 1.44938 5.36136 0.582408 0.520057 15.1674 0.112333 23.6903 0.0730684 5.24576 7.15797
33301.00 1531.48 1.006520 40.6454 1.44576 5.4156 0.582323 0.51785 15.1411 0.111597 23.6632 0.0725719 5.26393 7.14064
33201.00 1531.18 1.006603 40.6508 1.4421 5.47008 0.582238 0.515601 15.1149 0.110861 23.6361 0.0720752 5.28227 7.12299
33101.00 1530.89 1.006687 40.6562 1.43839 5.52481 0.582153 0.513312 15.0887 0.110123 23.6089 0.0715784 5.30078 7.10502
33001.00 1530.59 1.006770 40.6617 1.43464 5.57977 0.582068 0.510982 15.0624 0.109386 23.5817 0.0710815 5.31947 7.08674
32901.00 1530.29 1.006854 40.6673 1.43084 5.63497 0.581982 0.508611 15.0362 0.108648 23.5544 0.0705846 5.33833 7.06814
32801.00 1529.99 1.006937 40.6729 1.427 5.6904 0.581895 0.5062 15.0099 0.107909 23.5271 0.0700877 5.35738 7.04922
32701.00 1529.69 1.007020 40.6786 1.42312 5.74606 0.581806 0.503748 14.9836 0.107171 23.4997 0.0695908 5.3766 7.02999
32601.00 1529.39 1.007103 40.6843 1.41919 5.80194 0.581717 0.501256 14.9573 0.106432 23.4723 0.0690941 5.39601 7.01044
32501.00 1529.09 1.007186 40.6901 1.41521 5.85805 0.581625 0.498724 14.9311 0.105693 23.4448 0.0685976 5.41559 6.99057
32401.00 1528.79 1.007269 40.696 1.4112 5.91438 0.581531 0.496152 14.9048 0.104954 23.4172 0.0681012 5.43537 6.97038
32301.00 1528.48 1.007352 40.7019 1.40713 5.97092 0.581435 0.49354 14.8785 0.104215 23.3896 0.0676051 5.45532 6.94988
32201.00 1528.18 1.007435 40.7079 1.40303 6.02768 0.581337 0.490888 14.8521 0.103476 23.362 0.0671093 5.47547 6.92905
32101.00 1527.87 1.007517 40.7139 1.39888 6.08464 0.581235 0.488196 14.8258 0.102737 23.3342 0.0666138 5.4958 6.90791
32001.00 1527.57 1.007600 40.72 1.39468 6.14181 0.58113 0.485465 14.7995 0.101999 23.3065 0.0661187 5.51633 6.88645
31901.00 1527.26 1.007683 40.7262 1.39044 6.19919 0.581021 0.482695 14.7732 0.10126 23.2786 0.0656241 5.53705 6.86467
31801.00 1526.95 1.007766 40.7325 1.38616 6.25676 0.580908 0.479885 14.7469 0.100523 23.2508 0.0651299 5.55796 6.84257
31701.00 1526.64 1.007849 40.7388 1.38184 6.31454 0.58079 0.477037 14.7205 0.0997853 23.2228 0.0646363 5.57907 6.82015
31601.00 1526.32 1.007931 40.7452 1.37747 6.3725 0.580668 0.47415 14.6942 0.0990484 23.1948 0.0641432 5.60038 6.79741
31501.00 1526.01 1.008014 40.7517 1.37305 6.43065 0.58054 0.471225 14.6679 0.0983121 23.1668 0.0636507 5.62188 6.77435
31401.00 1525.70 1.008097 40.7582 1.36859 6.48899 0.580407 0.468261 14.6415 0.0975765 23.1387 0.0631589 5.64359 6.75097
31301.00 1525.38 1.008180 40.7649 1.36409 6.54751 0.580268 0.46526 14.6152 0.0968416 23.1105 0.0626678 5.6655 6.72727
31201.00 1525.06 1.008263 40.7716 1.35955 6.60622 0.580123 0.462222 14.5889 0.0961075 23.0823 0.0621774 5.68761 6.70326
31101.00 1524.75 1.008346 40.7784 1.35496 6.66509 0.57997 0.459146 14.5625 0.0953742 23.054 0.0616879 5.70993 6.67892
31001.00 1524.43 1.008429 40.7852 1.35032 6.72414 0.57981 0.456033 14.5362 0.0946418 23.0257 0.0611991 5.73246 6.65427
30901.00 1524.10 1.008512 40.7922 1.34564 6.78336 0.579643 0.452884 14.5099 0.0939105 22.9973 0.0607112 5.7552 6.62929
30801.00 1523.78 1.008595 40.7992 1.34092 6.84274 0.579467 0.449699 14.4835 0.0931802 22.9689 0.0602242 5.77815 6.604
30701.00 1523.46 1.008678 40.8063 1.33616 6.90228 0.579283 0.446477 14.4572 0.0924509 22.9404 0.0597382 5.80131 6.57839
30601.00 1523.13 1.008762 40.8135 1.33135 6.96198 0.579089 0.443221 14.4309 0.0917229 22.9118 0.0592531 5.82469 6.55246
30501.00 1522.81 1.008845 40.8208 1.3265 7.02183 0.578886 0.439929 14.4046 0.0909961 22.8832 0.0587691 5.84829 6.52622
30401.00 1522.48 1.008929 40.8282 1.32161 7.08184 0.578672 0.436602 14.3783 0.0902706 22.8545 0.0582861 5.8721 6.49966
30301.00 1522.15 1.009013 40.8356 1.31667 7.14199 0.578448 0.433242 14.352 0.0895465 22.8258 0.0578043 5.89614 6.47278
30201.00 1521.82 1.009097 40.8432 1.31169 7.20228 0.578212 0.429847 14.3257 0.0888238 22.797 0.0573236 5.92039 6.44558
30101.00 1521.49 1.009181 40.8508 1.30666 7.26272 0.577965 0.42642 14.2994 0.0881027 22.7682 0.0568441 5.94487 6.41807
30001.00 1521.16 1.009266 40.8585 1.30159 7.32329 0.577705 0.422959 14.2731 0.087383 22.7392 0.0563658 5.96958 6.39024
29901.00 1520.82 1.009350 40.8664 1.29648 7.38399 0.577433 0.419466 14.2468 0.086665 22.7103 0.0558888 5.99452 6.3621
29801.00 1520.49 1.009435 40.8743 1.29133 7.44482 0.577147 0.415942 14.2205 0.0859486 22.6812 0.0554131 6.01968 6.33365
29701.00 1520.15 1.009520 40.8823 1.28613 7.50578 0.576846 0.412386 14.1943 0.085234 22.6521 0.0549387 6.04508 6.30488
29601.00 1519.81 1.009606 40.8904 1.28089 7.56685 0.576531 0.408799 14.168 0.0845212 22.623 0.0544657 6.07071 6.2758
29501.00 1519.47 1.009691 40.8986 1.27561 7.62805 0.576201 0.405182 14.1418 0.0838102 22.5937 0.0539941 6.09658 6.24641
29401.00 1519.13 1.009777 40.9069 1.27028 7.68936 0.575854 0.401535 14.1156 0.0831011 22.5645 0.053524 6.12268 6.2167
29301.00 1518.78 1.009864 40.9153 1.26491 7.75078 0.575491 0.39786 14.0894 0.0823939 22.5351 0.0530553 6.14902 6.18669
29201.00 1518.44 1.009950 40.9239 1.2595 7.8123 0.57511 0.394156 14.0632 0.0816888 22.5057 0.0525882 6.1756 6.15637
29101.00 1518.09 1.010037 40.9325 1.25405 7.87393 0.574712 0.390424 14.037 0.0809858 22.4762 0.0521226 6.20243 6.12574
29001.00 1517.74 1.010124 40.9412 1.24855 7.93566 0.574294 0.386665 14.0108 0.0802849 22.4466 0.0516586 6.2295 6.09481
28901.00 1517.39 1.010212 40.95 1.24301 7.99748 0.573857 0.382879 13.9846 0.0795861 22.417 0.0511962 6.25682 6.06356
28801.00 1517.04 1.010300 40.9589 1.23743 8.05939 0.5734 0.379068 13.9585 0.0788896 22.3873 0.0507354 6.28438 6.03202
28701.00 1516.69 1.010388 40.9679 1.23181 8.1214 0.572921 0.375231 13.9323 0.0781954 22.3575 0.0502764 6.3122 6.00017
28601.00 1516.33 1.010477 40.9771 1.22614 8.18348 0.572421 0.37137 13.9062 0.0775036 22.3277 0.049819 6.34027 5.96802
28501.00 1515.98 1.010566 40.9863 1.22044 8.24565 0.571898 0.367485 13.8801 0.0768141 22.2978 0.0493635 6.36859 5.93556
28401.00 1515.62 1.010656 40.9956 1.21469 8.3079 0.571352 0.363577 13.854 0.076127 22.2678 0.0489096 6.39717 5.90281
28301.00 1515.26 1.010746 41.0051 1.20889 8.37022 0.570781 0.359647 13.828 0.0754425 22.2377 0.0484577 6.426 5.86976
28201.00 1514.90 1.010837 41.0147 1.20306 8.4326 0.570185 0.355695 13.8019 0.0747605 22.2076 0.0480075 6.4551 5.83642
28101.00 1514.53 1.010928 41.0243 1.19718 8.49506 0.569564 0.351723 13.7759 0.074081 22.1774 0.0475592 6.48446 5.80278
28001.00 1514.17 1.011020 41.0341 1.19127 8.55758 0.568915 0.34773 13.7499 0.0734042 22.1471 0.0471128 6.51408 5.76884
27901.00 1513.80 1.011113 41.044 1.18531 8.62015 0.568239 0.343719 13.7239 0.0727301 22.1167 0.0466684 6.54397 5.73462
27801.00 1513.43 1.011205 41.054 1.17931 8.68279 0.567533 0.339689 13.6979 0.0720587 22.0863 0.0462259 6.57412 5.7001
27701.00 1513.06 1.011299 41.0642 1.17327 8.74547 0.566799 0.335642 13.6719 0.0713901 22.0557 0.0457853 6.60454 5.6653
27601.00 1512.68 1.011393 41.0744 1.16718 8.8082 0.566033 0.331578 13.646 0.0707244 22.0251 0.0453468 6.63524 5.63021
27501.00 1512.31 1.011488 41.0848 1.16106 8.87098 0.565236 0.327498 13.6201 0.0700615 21.9944 0.0449104 6.6662 5.59484
27401.00 1511.93 1.011583 41.0952 1.15489 8.9338 0.564407 0.323404 13.5942 0.0694014 21.9636 0.044476 6.69744 5.55918
