Title: Depleted MORB Mantle of Workmann & Hart 2005

Phase Masses:
Pressure Temperature mass liquid_0 olivine_0 garnet_0 orthopyroxene_0 clinopyroxene_0 feldspar_0 spinel_0 
44001.00 1558.52 100.138999 1.107284 57.793950 12.717657 14.439998 12.949907 0.000000 1.130202 
43901.00 1558.30 100.032035 0.996169 57.797688 12.701174 14.440296 12.965044 0.000000 1.131664 
43801.00 1558.08 100.032035 0.992098 57.801335 12.684597 14.440685 12.980180 0.000000 1.133141 
43701.00 1557.85 100.032035 0.988105 57.804889 12.667926 14.441167 12.995317 0.000000 1.134631 
43601.00 1557.63 100.032035 0.984191 57.808351 12.651161 14.441743 13.010454 0.000000 1.136136 
43501.00 1557.41 100.032035 0.980356 57.811722 12.634299 14.442414 13.025591 0.000000 1.137655 
43401.00 1557.19 100.032035 0.976600 57.814999 12.617339 14.443181 13.040728 0.000000 1.139188 
43301.00 1556.96 100.032035 0.972923 57.818184 12.600282 14.444044 13.055865 0.000000 1.140737 
43201.00 1556.74 100.032035 0.969326 57.821276 12.583125 14.445006 13.071002 0.000000 1.142300 
43101.00 1556.51 100.032035 0.965808 57.824275 12.565868 14.446066 13.086138 0.000000 1.143879 
43001.00 1556.29 100.032035 0.962369 57.827181 12.548510 14.447227 13.101275 0.000000 1.145474 
42901.00 1556.06 100.032035 0.959010 57.829992 12.531048 14.448488 13.116412 0.000000 1.147084 
42801.00 1555.83 100.032035 0.955731 57.832710 12.513484 14.449852 13.131548 0.000000 1.148710 
42701.00 1555.61 100.032035 0.952531 57.835334 12.495814 14.451319 13.146684 0.000000 1.150353 
42601.00 1555.38 100.032035 0.949412 57.837863 12.478038 14.452891 13.161820 0.000000 1.152011 
42501.00 1555.15 100.032035 0.946373 57.840297 12.460155 14.454567 13.176956 0.000000 1.153687 
42401.00 1554.92 100.032035 0.943414 57.842636 12.442164 14.456351 13.192092 0.000000 1.155379 
42301.00 1554.69 100.032035 0.940535 57.844879 12.424062 14.458242 13.207228 0.000000 1.157088 
42201.00 1554.46 100.032035 0.937737 57.847027 12.405850 14.460242 13.222363 0.000000 1.158815 
42101.00 1554.23 100.032035 0.935020 57.849079 12.387526 14.462352 13.237499 0.000000 1.160560 
42001.00 1554.00 100.032035 0.932384 57.851034 12.369088 14.464573 13.252634 0.000000 1.162322 
41901.00 1553.77 100.032035 0.929829 57.852892 12.350535 14.466907 13.267769 0.000000 1.164103 
41801.00 1553.54 100.032035 0.927356 57.854653 12.331866 14.469354 13.282903 0.000000 1.165902 
41701.00 1553.31 100.032035 0.924964 57.856317 12.313080 14.471916 13.298038 0.000000 1.167720 
41601.00 1553.07 100.032035 0.922655 57.857882 12.294174 14.474594 13.313173 0.000000 1.169556 
41501.00 1552.84 100.032035 0.920428 57.859350 12.275148 14.477390 13.328307 0.000000 1.171412 
41401.00 1552.61 100.032035 0.918283 57.860718 12.256001 14.480304 13.343442 0.000000 1.173288 
41301.00 1552.37 100.032035 0.916222 57.861987 12.236730 14.483337 13.358576 0.000000 1.175183 
41201.00 1552.14 100.032035 0.914243 57.863157 12.217334 14.486492 13.373710 0.000000 1.177099 
41101.00 1551.90 100.032035 0.912348 57.864227 12.197811 14.489770 13.388845 0.000000 1.179035 
41001.00 1551.67 100.032035 0.910537 57.865196 12.178161 14.493171 13.403979 0.000000 1.180992 
40901.00 1551.43 100.032035 0.908810 57.866064 12.158381 14.496697 13.419114 0.000000 1.182969 
40801.00 1551.19 100.032035 0.907167 57.866831 12.138470 14.500349 13.434248 0.000000 1.184969 
40701.00 1550.95 100.032035 0.905609 57.867496 12.118427 14.504130 13.449384 0.000000 1.186990 
40601.00 1550.72 100.032035 0.904137 57.868059 12.098249 14.508039 13.464519 0.000000 1.189033 
40501.00 1550.48 100.032035 0.902750 57.868519 12.077934 14.512079 13.479655 0.000000 1.191098 
40401.00 1550.24 100.032035 0.901449 57.868875 12.057482 14.516251 13.494791 0.000000 1.193186 
40301.00 1550.00 100.032035 0.900235 57.869128 12.036890 14.520556 13.509928 0.000000 1.195297 
40201.00 1549.76 100.032035 0.899108 57.869276 12.016157 14.524996 13.525065 0.000000 1.197432 
40101.00 1549.51 100.032035 0.898068 57.869320 11.995280 14.529573 13.540204 0.000000 1.199591 
40001.00 1549.27 100.032035 0.897116 57.869257 11.974258 14.534287 13.555343 0.000000 1.201773 
39901.00 1549.03 100.032035 0.896252 57.869089 11.953090 14.539141 13.570483 0.000000 1.203981 
39801.00 1548.79 100.032035 0.895477 57.868814 11.931771 14.544135 13.585625 0.000000 1.206213 
39701.00 1548.54 100.032035 0.894791 57.868432 11.910302 14.549271 13.600767 0.000000 1.208471 
39601.00 1548.30 100.032035 0.894196 57.867943 11.888680 14.554551 13.615911 0.000000 1.210754 
39501.00 1548.05 100.032035 0.893690 57.867345 11.866903 14.559977 13.631057 0.000000 1.213063 
39401.00 1547.81 100.032035 0.893276 57.866637 11.844969 14.565550 13.646204 0.000000 1.215399 
39301.00 1547.56 100.032035 0.892953 57.865821 11.822875 14.571271 13.661354 0.000000 1.217762 
39201.00 1547.32 100.032035 0.892722 57.864894 11.800619 14.577142 13.676505 0.000000 1.220153 
39101.00 1547.07 100.032035 0.892584 57.863856 11.778200 14.583165 13.691659 0.000000 1.222571 
39001.00 1546.82 100.032035 0.892539 57.862706 11.755615 14.589342 13.706815 0.000000 1.225018 
38901.00 1546.57 100.032035 0.892588 57.861445 11.732861 14.595673 13.721974 0.000000 1.227494 
38801.00 1546.32 100.032035 0.892732 57.860070 11.709937 14.602162 13.737136 0.000000 1.229998 
38701.00 1546.07 100.032035 0.892971 57.858582 11.686839 14.608809 13.752301 0.000000 1.232533 
38601.00 1545.82 100.032035 0.893306 57.856979 11.663566 14.615616 13.767470 0.000000 1.235097 
38501.00 1545.57 100.032035 0.893738 57.855261 11.640115 14.622586 13.782643 0.000000 1.237693 
38401.00 1545.32 100.032035 0.894267 57.853428 11.616483 14.629719 13.797819 0.000000 1.240319 
38301.00 1545.07 100.032035 0.894895 57.851478 11.592668 14.637017 13.813000 0.000000 1.242978 
38201.00 1544.81 100.032035 0.895621 57.849410 11.568667 14.644483 13.828185 0.000000 1.245668 
38101.00 1544.56 100.032035 0.896447 57.847225 11.544477 14.652119 13.843376 0.000000 1.248392 
38001.00 1544.31 100.032035 0.897374 57.844921 11.520096 14.659925 13.858571 0.000000 1.251148 
37901.00 1544.05 100.032035 0.898402 57.842496 11.495521 14.667904 13.873773 0.000000 1.253939 
37801.00 1543.79 100.032035 0.899532 57.839952 11.470749 14.676058 13.888980 0.000000 1.256764 
37701.00 1543.54 100.032035 0.900765 57.837286 11.445777 14.684389 13.904194 0.000000 1.259624 
37601.00 1543.28 100.032035 0.902102 57.834498 11.420601 14.692899 13.919415 0.000000 1.262520 
37501.00 1543.02 100.032035 0.903544 57.831587 11.395220 14.701590 13.934642 0.000000 1.265452 
37401.00 1542.76 100.032035 0.905092 57.828552 11.369630 14.710463 13.949878 0.000000 1.268421 
37301.00 1542.51 100.032035 0.906746 57.825392 11.343827 14.719521 13.965122 0.000000 1.271427 
37201.00 1542.25 100.032035 0.908509 57.822107 11.317808 14.728765 13.980374 0.000000 1.274471 
37101.00 1541.98 100.032035 0.910380 57.818695 11.291571 14.738199 13.995636 0.000000 1.277555 
37001.00 1541.72 100.032035 0.912360 57.815155 11.265112 14.747823 14.010907 0.000000 1.280677 
36901.00 1541.46 100.032035 0.914451 57.811487 11.238426 14.757641 14.026189 0.000000 1.283840 
36801.00 1541.20 100.032035 0.916655 57.807690 11.211512 14.767654 14.041481 0.000000 1.287044 
36701.00 1540.93 100.032035 0.918971 57.803762 11.184365 14.777864 14.056785 0.000000 1.290289 
36601.00 1540.67 100.032035 0.921401 57.799702 11.156981 14.788274 14.072101 0.000000 1.293577 
36501.00 1540.41 100.032035 0.923946 57.795510 11.129357 14.798885 14.087429 0.000000 1.296907 
36401.00 1540.14 100.032035 0.926608 57.791185 11.101489 14.809701 14.102771 0.000000 1.300281 
36301.00 1539.87 100.032035 0.929387 57.786725 11.073373 14.820723 14.118127 0.000000 1.303700 
36201.00 1539.61 100.032035 0.932285 57.782129 11.045005 14.831954 14.133497 0.000000 1.307165 
36101.00 1539.34 100.032035 0.935302 57.777397 11.016382 14.843396 14.148883 0.000000 1.310675 
36001.00 1539.07 100.032035 0.938442 57.772527 10.987498 14.855052 14.164285 0.000000 1.314232 
35901.00 1538.80 100.032035 0.941703 57.767518 10.958350 14.866923 14.179704 0.000000 1.317837 
35801.00 1538.53 100.032035 0.945089 57.762368 10.928933 14.879013 14.195140 0.000000 1.321491 
35701.00 1538.26 100.032035 0.948600 57.757078 10.899243 14.891324 14.210596 0.000000 1.325194 
35601.00 1537.98 100.032035 0.952238 57.751645 10.869275 14.903858 14.226071 0.000000 1.328948 
35501.00 1537.71 100.032035 0.956004 57.746069 10.839026 14.916618 14.241566 0.000000 1.332753 
35401.00 1537.44 100.032035 0.959899 57.740348 10.808489 14.929606 14.257082 0.000000 1.336611 
35301.00 1537.16 100.032035 0.963925 57.734480 10.777661 14.942826 14.272621 0.000000 1.340521 
35201.00 1536.89 100.032035 0.968085 57.728466 10.746536 14.956279 14.288184 0.000000 1.344486 
35101.00 1536.61 100.032035 0.972378 57.722302 10.715110 14.969969 14.303770 0.000000 1.348506 
35001.00 1536.33 100.032035 0.976807 57.715989 10.683377 14.983898 14.319382 0.000000 1.352583 
34901.00 1536.05 100.032035 0.981373 57.709524 10.651332 14.998069 14.335021 0.000000 1.356716 
34801.00 1535.78 100.032035 0.986079 57.702907 10.618969 15.012485 14.350687 0.000000 1.360908 
34701.00 1535.50 100.032035 0.990925 57.696136 10.586285 15.027148 14.366382 0.000000 1.365160 
34601.00 1535.21 100.032035 0.995914 57.689209 10.553271 15.042062 14.382107 0.000000 1.369472 
34501.00 1534.93 100.032035 1.001047 57.682126 10.519924 15.057230 14.397863 0.000000 1.373845 
34401.00 1534.65 100.031301 1.005591 57.674883 10.486239 15.072654 14.413652 0.000000 1.378282 
34301.00 1534.37 100.025970 1.005676 57.667477 10.452221 15.088334 14.429479 0.000000 1.382782 
34201.00 1534.08 100.020499 1.005761 57.659906 10.417866 15.104274 14.445344 0.000000 1.387348 
34101.00 1533.80 100.014887 1.005846 57.652168 10.383167 15.120475 14.461250 0.000000 1.391980 
34001.00 1533.51 100.009132 1.005931 57.644262 10.348120 15.136942 14.477199 0.000000 1.396680 
33901.00 1533.22 100.003234 1.006015 57.636185 10.312717 15.153677 14.493191 0.000000 1.401449 
33801.00 1532.93 99.997191 1.006100 57.627937 10.276954 15.170683 14.509229 0.000000 1.406288 
33701.00 1532.64 99.991001 1.006184 57.619516 10.240824 15.187963 14.525316 0.000000 1.411198 
33601.00 1532.35 99.984663 1.006268 57.610919 10.204321 15.205521 14.541452 0.000000 1.416182 
33501.00 1532.06 99.978177 1.006352 57.602146 10.167438 15.223360 14.557640 0.000000 1.421241 
33401.00 1531.77 99.971540 1.006436 57.593195 10.130170 15.241483 14.573882 0.000000 1.426375 
33301.00 1531.48 99.964752 1.006520 57.584063 10.092509 15.259893 14.590180 0.000000 1.431586 
33201.00 1531.18 99.957810 1.006603 57.574750 10.054449 15.278594 14.606537 0.000000 1.436877 
33101.00 1530.89 99.950714 1.006687 57.565252 10.015984 15.297589 14.622954 0.000000 1.442248 
33001.00 1530.59 99.943462 1.006770 57.555569 9.977104 15.316882 14.639435 0.000000 1.447701 
32901.00 1530.29 99.936052 1.006854 57.545698 9.937805 15.336476 14.655982 0.000000 1.453238 
32801.00 1529.99 99.928484 1.006937 57.535637 9.898078 15.356374 14.672598 0.000000 1.458860 
32701.00 1529.69 99.920754 1.007020 57.525385 9.857915 15.376581 14.689284 0.000000 1.464569 
32601.00 1529.39 99.912863 1.007103 57.514939 9.817309 15.397100 14.706044 0.000000 1.470367 
32501.00 1529.09 99.904808 1.007186 57.504297 9.776253 15.417935 14.722881 0.000000 1.476256 
32401.00 1528.79 99.896588 1.007269 57.493458 9.734737 15.439089 14.739797 0.000000 1.482237 
32301.00 1528.48 99.888201 1.007352 57.482419 9.692754 15.460567 14.756796 0.000000 1.488312 
32201.00 1528.18 99.879646 1.007435 57.471178 9.650296 15.482373 14.773881 0.000000 1.494484 
32101.00 1527.87 99.870920 1.007517 57.459732 9.607353 15.504510 14.791055 0.000000 1.500753 
32001.00 1527.57 99.862023 1.007600 57.448080 9.563916 15.526982 14.808322 0.000000 1.507123 
31901.00 1527.26 99.852952 1.007683 57.436218 9.519978 15.549794 14.825684 0.000000 1.513595 
31801.00 1526.95 99.843706 1.007766 57.424146 9.475527 15.572950 14.843145 0.000000 1.520172 
31701.00 1526.64 99.834283 1.007849 57.411860 9.430556 15.596454 14.860710 0.000000 1.526855 
31601.00 1526.32 99.824682 1.007931 57.399358 9.385053 15.620311 14.878382 0.000000 1.533647 
31501.00 1526.01 99.814899 1.008014 57.386637 9.339010 15.644525 14.896164 0.000000 1.540550 
31401.00 1525.70 99.804935 1.008097 57.373695 9.292416 15.669101 14.914061 0.000000 1.547566 
31301.00 1525.38 99.794786 1.008180 57.360529 9.245260 15.694042 14.932078 0.000000 1.554698 
31201.00 1525.06 99.784451 1.008263 57.347136 9.197532 15.719355 14.950217 0.000000 1.561948 
31101.00 1524.75 99.773927 1.008346 57.333514 9.149220 15.745043 14.968485 0.000000 1.569319 
31001.00 1524.43 99.763214 1.008429 57.319661 9.100314 15.771112 14.986885 0.000000 1.576813 
30901.00 1524.10 99.752308 1.008512 57.305572 9.050803 15.797567 15.005422 0.000000 1.584433 
30801.00 1523.78 99.741208 1.008595 57.291246 9.000673 15.824413 15.024101 0.000000 1.592182 
30701.00 1523.46 99.729913 1.008678 57.276678 8.949913 15.851654 15.042927 0.000000 1.600062 
30601.00 1523.13 99.718419 1.008762 57.261867 8.898511 15.879296 15.061905 0.000000 1.608077 
30501.00 1522.81 99.706724 1.008845 57.246809 8.846454 15.907345 15.081041 0.000000 1.616229 
30401.00 1522.48 99.694827 1.008929 57.231501 8.793729 15.935806 15.100341 0.000000 1.624521 
30301.00 1522.15 99.682725 1.009013 57.215940 8.740322 15.964685 15.119809 0.000000 1.632957 
30201.00 1521.82 99.670416 1.009097 57.200121 8.686219 15.993988 15.139453 0.000000 1.641539 
30101.00 1521.49 99.657898 1.009181 57.184043 8.631407 16.023719 15.159277 0.000000 1.650271 
30001.00 1521.16 99.645169 1.009266 57.167701 8.575872 16.053886 15.179289 0.000000 1.659156 
29901.00 1520.82 99.632226 1.009350 57.151091 8.519597 16.084494 15.199495 0.000000 1.668198 
29801.00 1520.49 99.619066 1.009435 57.134211 8.462568 16.115550 15.219902 0.000000 1.677400 
29701.00 1520.15 99.605688 1.009520 57.117055 8.404769 16.147060 15.240517 0.000000 1.686766 
29601.00 1519.81 99.592088 1.009606 57.099622 8.346185 16.179031 15.261346 0.000000 1.696299 
29501.00 1519.47 99.578265 1.009691 57.081905 8.286797 16.211469 15.282398 0.000000 1.706004 
29401.00 1519.13 99.564216 1.009777 57.063902 8.226591 16.244381 15.303680 0.000000 1.715885 
29301.00 1518.78 99.549938 1.009864 57.045608 8.165547 16.277774 15.325200 0.000000 1.725945 
29201.00 1518.44 99.535429 1.009950 57.027019 8.103648 16.311656 15.346966 0.000000 1.736189 
29101.00 1518.09 99.520686 1.010037 57.008131 8.040876 16.346033 15.368988 0.000000 1.746621 
29001.00 1517.74 99.505706 1.010124 56.988938 7.977212 16.380914 15.391273 0.000000 1.757245 
28901.00 1517.39 99.490486 1.010212 56.969437 7.912635 16.416305 15.413831 0.000000 1.768067 
28801.00 1517.04 99.475025 1.010300 56.949622 7.847126 16.452216 15.436671 0.000000 1.779091 
28701.00 1516.69 99.459318 1.010388 56.929489 7.780664 16.488653 15.459802 0.000000 1.790321 
28601.00 1516.33 99.443363 1.010477 56.909033 7.713229 16.525625 15.483237 0.000000 1.801763 
28501.00 1515.98 99.427158 1.010566 56.888248 7.644797 16.563142 15.506983 0.000000 1.813422 
28401.00 1515.62 99.410698 1.010656 56.867129 7.575346 16.601210 15.531053 0.000000 1.825303 
28301.00 1515.26 99.393982 1.010746 56.845671 7.504854 16.639841 15.555457 0.000000 1.837413 
28201.00 1514.90 99.377005 1.010837 56.823868 7.433296 16.679042 15.580208 0.000000 1.849755 
28101.00 1514.53 99.359766 1.010928 56.801714 7.360647 16.718823 15.605317 0.000000 1.862337 
28001.00 1514.17 99.342260 1.011020 56.779203 7.286881 16.759195 15.630796 0.000000 1.875165 
27901.00 1513.80 99.324485 1.011113 56.756329 7.211974 16.800166 15.656659 0.000000 1.888244 
27801.00 1513.43 99.306437 1.011205 56.733086 7.135897 16.841748 15.682918 0.000000 1.901582 
27701.00 1513.06 99.288112 1.011299 56.709467 7.058623 16.883951 15.709589 0.000000 1.915184 
27601.00 1512.68 99.269509 1.011393 56.685466 6.980122 16.926785 15.736684 0.000000 1.929058 
27501.00 1512.31 99.250622 1.011488 56.661075 6.900365 16.970263 15.764220 0.000000 1.943211 
27401.00 1511.93 99.231449 1.011583 56.636288 6.819322 17.014395 15.792211 0.000000 1.957650 
27301.00 1511.55 99.211985 1.011679 56.611096 6.736960 17.059194 15.820674 0.000000 1.972383 
27201.00 1511.17 99.192228 1.011776 56.585493 6.653246 17.104672 15.849624 0.000000 1.987418 
27101.00 1510.79 99.172174 1.011873 56.559470 6.568147 17.150841 15.879081 0.000000 2.002762 
27001.00 1510.40 99.151819 1.011971 56.533020 6.481628 17.197714 15.909061 0.000000 2.018425 
26901.00 1510.01 99.131160 1.012070 56.506133 6.393652 17.245306 15.939583 0.000000 2.034416 
26801.00 1509.62 99.110191 1.012170 56.478801 6.304183 17.293629 15.970667 0.000000 2.050742 
26701.00 1509.23 99.088911 1.012270 56.451015 6.213180 17.342698 16.002333 0.000000 2.067414 
26601.00 1508.83 99.067313 1.012371 56.422766 6.120604 17.392529 16.034601 0.000000 2.084442 
26501.00 1508.44 99.045396 1.012473 56.394044 6.026414 17.443135 16.067495 0.000000 2.101835 
26401.00 1508.04 99.023154 1.012576 56.364840 5.930565 17.494534 16.101036 0.000000 2.119604 
26301.00 1507.63 99.000584 1.012680 56.335142 5.833015 17.546741 16.135248 0.000000 2.137760 
26201.00 1507.23 98.977682 1.012784 56.304940 5.733715 17.599774 16.170156 0.000000 2.156314 
26101.00 1506.82 98.954442 1.012889 56.274223 5.632619 17.653649 16.205785 0.000000 2.175278 
26001.00 1506.41 98.930862 1.012995 56.242979 5.529676 17.708385 16.242163 0.000000 2.194664 
25901.00 1506.00 98.906936 1.013102 56.211197 5.424836 17.764000 16.279317 0.000000 2.214484 
25801.00 1505.59 98.882661 1.013210 56.178864 5.318043 17.820515 16.317276 0.000000 2.234753 
25701.00 1505.17 98.858031 1.013318 56.145967 5.209243 17.877948 16.356071 0.000000 2.255484 
25601.00 1504.75 98.833044 1.013427 56.112493 5.098378 17.936321 16.395733 0.000000 2.276690 
25501.00 1504.33 98.807693 1.013538 56.078428 4.985387 17.995656 16.436296 0.000000 2.298387 
25401.00 1503.90 98.781975 1.013649 56.043757 4.870209 18.055975 16.477795 0.000000 2.320591 
25301.00 1503.47 98.755885 1.013760 56.008466 4.752777 18.117301 16.520264 0.000000 2.343317 
25201.00 1503.04 98.729419 1.013873 55.972539 4.633025 18.179658 16.563743 0.000000 2.366582 
25101.00 1502.61 98.702572 1.013986 55.935959 4.510882 18.243071 16.608271 0.000000 2.390403 
25001.00 1502.17 98.675339 1.014100 55.898709 4.386274 18.307566 16.653889 0.000000 2.414800 
24901.00 1501.73 98.647716 1.014215 55.860773 4.259126 18.373171 16.700640 0.000000 2.439790 
24801.00 1501.28 98.619698 1.014330 55.822131 4.129358 18.439913 16.748571 0.000000 2.465395 
24701.00 1500.84 98.591280 1.014446 55.782764 3.996886 18.507822 16.797728 0.000000 2.491634 
24601.00 1500.39 98.562458 1.014563 55.742653 3.861624 18.576928 16.848162 0.000000 2.518529 
24501.00 1499.93 98.533228 1.014680 55.701775 3.723481 18.647263 16.899925 0.000000 2.546103 
24401.00 1499.48 98.503584 1.014797 55.660111 3.582364 18.718859 16.953072 0.000000 2.574381 
24301.00 1499.02 98.473522 1.014915 55.617636 3.438173 18.791751 17.007661 0.000000 2.603385 
24201.00 1498.55 98.443037 1.015033 55.574327 3.290806 18.865975 17.063752 0.000000 2.633144 
24101.00 1498.08 98.412126 1.015151 55.530159 3.140154 18.941568 17.121411 0.000000 2.663683 
24001.00 1497.61 98.380783 1.015269 55.485106 2.986104 19.018569 17.180702 0.000000 2.695032 
23901.00 1497.14 98.349004 1.015386 55.439141 2.828540 19.097019 17.241699 0.000000 2.727220 
23801.00 1496.66 98.316786 1.015504 55.392234 2.667336 19.176959 17.304474 0.000000 2.760280 
23701.00 1496.18 98.284123 1.015621 55.344356 2.502363 19.258434 17.369107 0.000000 2.794243 
23601.00 1495.69 98.251013 1.015737 55.295475 2.333486 19.341490 17.435681 0.000000 2.829144 
23501.00 1495.20 98.217451 1.015852 55.245559 2.160561 19.426176 17.504282 0.000000 2.865020 
