Title: Depleted MORB Mantle of Workmann & Hart 2005

Liquid Composition:
Pressure Temperature mass SiO2 TiO2 Al2O3 Fe2O3 Cr2O3 FeO MnO MgO NiO CaO Na2O 
44001.00 1225.13 0.000000 ---
43901.00 1224.95 0.000000 ---
43801.00 1224.78 0.000000 ---
43701.00 1224.60 0.000000 ---
43601.00 1224.43 0.000000 ---
43501.00 1224.25 0.000000 ---
43401.00 1224.07 0.000000 ---
43301.00 1223.90 0.000000 ---
43201.00 1223.72 0.000000 ---
43101.00 1223.54 0.000000 ---
43001.00 1223.37 0.000000 ---
42901.00 1223.19 0.000000 ---
42801.00 1223.02 0.000000 ---
42701.00 1222.84 0.000000 ---
42601.00 1222.66 0.000000 ---
42501.00 1222.49 0.000000 ---
42401.00 1222.31 0.000000 ---
42301.00 1222.13 0.000000 ---
42201.00 1221.96 0.000000 ---
42101.00 1221.78 0.000000 ---
42001.00 1221.60 0.000000 ---
41901.00 1221.43 0.000000 ---
41801.00 1221.25 0.000000 ---
41701.00 1221.07 0.000000 ---
41601.00 1220.90 0.000000 ---
41501.00 1220.72 0.000000 ---
41401.00 1220.54 0.000000 ---
41301.00 1220.37 0.000000 ---
41201.00 1220.19 0.000000 ---
41101.00 1220.01 0.000000 ---
41001.00 1219.84 0.000000 ---
40901.00 1219.66 0.000000 ---
40801.00 1219.48 0.000000 ---
40701.00 1219.31 0.000000 ---
40601.00 1219.13 0.000000 ---
40501.00 1218.95 0.000000 ---
40401.00 1218.78 0.000000 ---
40301.00 1218.60 0.000000 ---
40201.00 1218.42 0.000000 ---
40101.00 1218.25 0.000000 ---
40001.00 1218.07 0.000000 ---
39901.00 1217.89 0.000000 ---
39801.00 1217.72 0.000000 ---
39701.00 1217.54 0.000000 ---
39601.00 1217.36 0.000000 ---
39501.00 1217.18 0.000000 ---
39401.00 1217.01 0.000000 ---
39301.00 1216.83 0.000000 ---
39201.00 1216.65 0.000000 ---
39101.00 1216.48 0.000000 ---
39001.00 1216.30 0.000000 ---
38901.00 1216.12 0.000000 ---
38801.00 1215.94 0.000000 ---
38701.00 1215.77 0.000000 ---
38601.00 1215.59 0.000000 ---
38501.00 1215.41 0.000000 ---
38401.00 1215.23 0.000000 ---
38301.00 1215.06 0.000000 ---
38201.00 1214.88 0.000000 ---
38101.00 1214.70 0.000000 ---
38001.00 1214.52 0.000000 ---
37901.00 1214.35 0.000000 ---
37801.00 1214.17 0.000000 ---
37701.00 1213.99 0.000000 ---
37601.00 1213.81 0.000000 ---
37501.00 1213.64 0.000000 ---
37401.00 1213.46 0.000000 ---
37301.00 1213.28 0.000000 ---
37201.00 1213.10 0.000000 ---
37101.00 1212.92 0.000000 ---
37001.00 1212.75 0.000000 ---
36901.00 1212.57 0.000000 ---
36801.00 1212.39 0.000000 ---
36701.00 1212.21 0.000000 ---
36601.00 1212.03 0.000000 ---
36501.00 1211.86 0.000000 ---
36401.00 1211.68 0.000000 ---
36301.00 1211.50 0.000000 ---
36201.00 1211.32 0.000000 ---
36101.00 1211.14 0.000000 ---
36001.00 1210.96 0.000000 ---
35901.00 1210.78 0.000000 ---
35801.00 1210.61 0.000000 ---
35701.00 1210.43 0.000000 ---
35601.00 1210.25 0.000000 ---
35501.00 1210.07 0.000000 ---
35401.00 1209.89 0.000000 ---
35301.00 1209.71 0.000000 ---
35201.00 1209.53 0.000000 ---
35101.00 1209.35 0.000000 ---
35001.00 1209.18 0.000000 ---
34901.00 1209.00 0.000000 ---
34801.00 1208.82 0.000000 ---
34701.00 1208.64 0.000000 ---
34601.00 1208.46 0.000000 ---
34501.00 1208.28 0.000000 ---
34401.00 1208.10 0.000000 ---
34301.00 1207.92 0.000000 ---
34201.00 1207.74 0.000000 ---
34101.00 1207.56 0.000000 ---
34001.00 1207.38 0.000000 ---
33901.00 1207.20 0.000000 ---
33801.00 1207.02 0.000000 ---
33701.00 1206.84 0.000000 ---
33601.00 1206.66 0.000000 ---
33501.00 1206.48 0.000000 ---
33401.00 1206.30 0.000000 ---
33301.00 1206.12 0.000000 ---
33201.00 1205.94 0.000000 ---
33101.00 1205.76 0.000000 ---
33001.00 1205.58 0.000000 ---
32901.00 1205.40 0.000000 ---
32801.00 1205.22 0.000000 ---
32701.00 1205.04 0.000000 ---
32601.00 1204.86 0.000000 ---
32501.00 1204.68 0.000000 ---
32401.00 1204.50 0.000000 ---
32301.00 1204.31 0.000000 ---
32201.00 1204.13 0.000000 ---
32101.00 1203.95 0.000000 ---
32001.00 1203.77 0.000000 ---
31901.00 1203.59 0.000000 ---
31801.00 1203.41 0.000000 ---
31701.00 1203.23 0.000000 ---
31601.00 1203.04 0.000000 ---
31501.00 1202.86 0.000000 ---
31401.00 1202.68 0.000000 ---
31301.00 1202.50 0.000000 ---
31201.00 1202.31 0.000000 ---
31101.00 1202.13 0.000000 ---
31001.00 1201.95 0.000000 ---
30901.00 1201.77 0.000000 ---
30801.00 1201.58 0.000000 ---
30701.00 1201.40 0.000000 ---
30601.00 1201.22 0.000000 ---
30501.00 1201.04 0.000000 ---
30401.00 1200.85 0.000000 ---
30301.00 1200.67 0.000000 ---
30201.00 1200.49 0.000000 ---
30101.00 1200.30 0.000000 ---
30001.00 1200.12 0.000000 ---
29901.00 1199.93 0.000000 ---
29801.00 1199.75 0.000000 ---
29701.00 1199.57 0.000000 ---
29601.00 1199.38 0.000000 ---
29501.00 1199.20 0.000000 ---
29401.00 1199.01 0.000000 ---
29301.00 1198.83 0.000000 ---
29201.00 1198.64 0.000000 ---
29101.00 1198.46 0.000000 ---
29001.00 1198.27 0.000000 ---
28901.00 1198.09 0.000000 ---
28801.00 1197.90 0.000000 ---
28701.00 1197.72 0.000000 ---
28601.00 1197.53 0.000000 ---
28501.00 1197.34 0.000000 ---
28401.00 1197.16 0.000000 ---
28301.00 1196.97 0.000000 ---
28201.00 1196.78 0.000000 ---
28101.00 1196.60 0.000000 ---
28001.00 1196.41 0.000000 ---
27901.00 1196.22 0.000000 ---
27801.00 1196.04 0.000000 ---
27701.00 1195.85 0.000000 ---
27601.00 1195.66 0.000000 ---
27501.00 1195.47 0.000000 ---
27401.00 1195.28 0.000000 ---
27301.00 1195.10 0.000000 ---
27201.00 1194.91 0.000000 ---
27101.00 1194.72 0.000000 ---
27001.00 1194.53 0.000000 ---
26901.00 1194.34 0.000000 ---
26801.00 1194.15 0.000000 ---
26701.00 1193.96 0.000000 ---
26601.00 1193.77 0.000000 ---
26501.00 1193.58 0.000000 ---
26401.00 1193.39 0.000000 ---
26301.00 1193.20 0.000000 ---
26201.00 1193.01 0.000000 ---
26101.00 1192.81 0.000000 ---
26001.00 1192.62 0.000000 ---
25901.00 1192.43 0.000000 ---
25801.00 1192.24 0.000000 ---
25701.00 1192.04 0.000000 ---
25601.00 1191.85 0.000000 ---
25501.00 1191.66 0.000000 ---
25401.00 1191.46 0.000000 ---
25301.00 1191.27 0.000000 ---
25201.00 1191.08 0.000000 ---
25101.00 1190.88 0.000000 ---
25001.00 1190.69 0.000000 ---
24901.00 1190.49 0.000000 ---
24801.00 1190.30 0.000000 ---
24701.00 1190.10 0.000000 ---
24601.00 1189.90 0.000000 ---
24501.00 1189.71 0.000000 ---
24401.00 1189.51 0.000000 ---
24301.00 1189.31 0.000000 ---
24201.00 1189.11 0.000000 ---
24101.00 1188.91 0.000000 ---
24001.00 1188.71 0.000000 ---
23901.00 1188.52 0.000000 ---
23801.00 1188.32 0.000000 ---
23701.00 1188.12 0.000000 ---
23601.00 1187.91 0.000000 ---
23501.00 1187.71 0.000000 ---
23401.00 1187.51 0.000000 ---
23301.00 1187.31 0.000000 ---
23201.00 1187.11 0.000000 ---
23101.00 1186.90 0.000000 ---
23001.00 1186.70 0.000000 ---
22901.00 1186.50 0.000000 ---
22801.00 1186.29 0.000000 ---
22701.00 1186.09 0.000000 ---
22601.00 1185.88 0.000000 ---
22501.00 1185.67 0.000000 ---
22401.00 1185.47 0.000000 ---
22301.00 1185.26 0.000000 ---
22201.00 1185.05 0.000000 ---
22101.00 1184.84 0.000000 ---
22001.00 1184.63 0.000000 ---
21901.00 1184.42 0.000000 ---
21801.00 1184.21 0.000000 ---
21701.00 1184.00 0.000000 ---
21601.00 1183.78 0.000000 ---
21501.00 1183.57 0.000000 ---
21401.00 1183.36 0.000000 ---
21301.00 1183.14 0.000000 ---
21201.00 1182.93 0.000000 ---
21101.00 1182.71 0.000000 ---
21001.00 1182.49 0.000000 ---
20901.00 1182.27 0.000000 ---
20801.00 1182.05 0.000000 ---
20701.00 1181.83 0.000000 ---
20601.00 1181.61 0.000000 ---
20501.00 1181.39 0.000000 ---
20401.00 1181.17 0.000000 ---
20301.00 1180.94 0.000000 ---
20201.00 1180.72 0.000000 ---
20101.00 1180.49 0.000000 ---
20001.00 1180.27 0.000000 ---
19901.00 1180.04 0.000000 ---
19801.00 1179.81 0.000000 ---
19701.00 1179.58 0.000000 ---
19601.00 1179.34 0.000000 ---
19501.00 1179.11 0.000000 ---
19401.00 1178.88 0.000000 ---
19301.00 1178.64 0.000000 ---
19201.00 1178.40 0.000000 ---
19101.00 1178.16 0.000000 ---
19001.00 1177.92 0.000000 ---
18901.00 1177.68 0.000000 ---
18801.00 1177.43 0.000000 ---
18701.00 1177.19 0.000000 ---
18601.00 1176.94 0.000000 ---
18501.00 1176.69 0.000000 ---
18401.00 1176.44 0.000000 ---
18301.00 1176.18 0.000000 ---
18201.00 1175.93 0.000000 ---
18101.00 1175.67 0.000000 ---
18001.00 1175.41 0.000000 ---
17901.00 1175.15 0.000000 ---
17801.00 1174.88 0.000000 ---
17701.00 1174.61 0.000000 ---
17601.00 1174.34 0.000000 ---
17501.00 1174.07 0.000000 ---
17401.00 1173.79 0.000000 ---
17301.00 1173.51 0.000000 ---
17201.00 1173.23 0.000000 ---
17101.00 1172.94 0.000000 ---
17001.00 1172.65 0.000000 ---
16901.00 1172.48 0.000000 ---
16801.00 1172.31 0.000000 ---
16701.00 1172.15 0.000000 ---
16601.00 1171.99 0.000000 ---
16501.00 1171.82 0.000000 ---
16401.00 1171.66 0.000000 ---
16301.00 1171.49 0.000000 ---
16201.00 1171.33 0.000000 ---
16101.00 1171.17 0.000000 ---
16001.00 1171.00 0.000000 ---
15901.00 1170.84 0.000000 ---
15801.00 1170.68 0.000000 ---
15701.00 1170.51 0.000000 ---
15601.00 1170.35 0.000000 ---
15501.00 1170.19 0.000000 ---
15401.00 1170.02 0.000000 ---
15301.00 1169.86 0.000000 ---
15201.00 1169.70 0.000000 ---
15101.00 1169.53 0.000000 ---
15001.00 1169.37 0.000000 ---
14901.00 1169.20 0.000000 ---
14801.00 1169.04 0.000000 ---
14701.00 1168.88 0.000000 ---
14601.00 1168.71 0.000000 ---
14501.00 1168.55 0.000000 ---
14401.00 1168.39 0.000000 ---
14301.00 1168.22 0.000000 ---
14201.00 1168.06 0.000000 ---
14101.00 1167.90 0.000000 ---
14001.00 1167.73 0.000000 ---
13901.00 1167.57 0.000000 ---
13801.00 1167.41 0.000000 ---
13701.00 1167.24 0.000000 ---
13601.00 1167.08 0.000000 ---
13501.00 1166.92 0.000000 ---
13401.00 1166.75 0.000000 ---
13301.00 1166.59 0.000000 ---
13201.00 1166.43 0.000000 ---
13101.00 1166.26 0.000000 ---
13001.00 1166.10 0.000000 ---
12901.00 1165.94 0.000000 ---
12801.00 1165.77 0.000000 ---
12701.00 1165.61 0.000000 ---
12601.00 1165.45 0.000000 ---
12501.00 1165.28 0.000000 ---
12401.00 1165.12 0.000000 ---
12301.00 1164.96 0.000000 ---
12201.00 1164.79 0.000000 ---
12101.00 1164.63 0.000000 ---
12001.00 1164.47 0.000000 ---
11901.00 1164.30 0.000000 ---
11801.00 1164.14 0.000000 ---
11701.00 1163.98 0.000000 ---
11601.00 1163.81 0.000000 ---
11501.00 1163.65 0.000000 ---
11401.00 1163.49 0.000000 ---
11301.00 1163.32 0.000000 ---
11201.00 1163.16 0.000000 ---
11101.00 1163.00 0.000000 ---
11001.00 1162.83 0.000000 ---
10901.00 1162.67 0.000000 ---
10801.00 1162.51 0.000000 ---
10701.00 1162.34 0.000000 ---
10601.00 1162.18 0.000000 ---
10501.00 1162.02 0.000000 ---
10401.00 1161.85 0.000000 ---
10301.00 1161.69 0.000000 ---
10201.00 1161.53 0.000000 ---
10101.00 1161.37 0.000000 ---
10001.00 1161.20 0.000000 ---
9901.00 1161.04 0.000000 ---
9801.00 1160.88 0.000000 ---
9701.00 1160.71 0.000000 ---
9601.00 1160.55 0.000000 ---
9501.00 1160.39 0.000000 ---
9401.00 1160.22 0.000000 ---
9301.00 1160.00 0.000000 ---
9201.00 1159.78 0.000000 ---
9101.00 1159.55 0.000000 ---
9001.00 1159.32 0.000000 ---
8901.00 1159.10 0.000000 ---
8801.00 1158.88 0.000000 ---
8701.00 1158.65 0.000000 ---
8601.00 1158.43 0.000000 ---
8501.00 1158.21 0.000000 ---
8401.00 1157.99 0.000000 ---
8301.00 1157.77 0.000000 ---
8201.00 1157.55 0.000000 ---
8101.00 1157.33 0.000000 ---
8001.00 1157.11 0.000000 ---
7901.00 1156.89 0.000000 ---
7801.00 1156.67 0.000000 ---
7701.00 1156.45 0.000000 ---
7601.00 1156.23 0.000000 ---
7501.00 1156.01 0.000000 ---
7401.00 1155.79 0.000000 ---
7301.00 1155.57 0.000000 ---
7201.00 1155.35 0.000000 ---
7101.00 1155.14 0.000000 ---
7001.00 1154.92 0.000000 ---
6901.00 1154.70 0.000000 ---
6801.00 1154.48 0.000000 ---
6701.00 1154.26 0.000000 ---
6601.00 1154.04 0.000000 ---
6501.00 1153.81 0.000000 ---
6401.00 1153.59 0.000000 ---
6301.00 1153.37 0.000000 ---
6201.00 1153.15 0.000000 ---
6101.00 1152.92 0.000000 ---
6001.00 1152.70 0.000000 ---
5901.00 1152.47 0.000000 ---
5801.00 1152.25 0.000000 ---
5701.00 1152.02 0.000000 ---
5601.00 1151.79 0.000000 ---
5501.00 1151.56 0.000000 ---
5401.00 1151.33 0.000000 ---
5301.00 1151.10 0.000000 ---
5201.00 1150.87 0.000000 ---
5101.00 1150.63 0.000000 ---
5001.00 1150.40 0.000000 ---
4901.00 1150.16 0.000000 ---
4801.00 1149.93 0.000000 ---
4701.00 1149.69 0.000000 ---
4601.00 1149.45 0.000000 ---
4501.00 1149.21 0.000000 ---
4401.00 1148.98 0.000000 ---
4301.00 1148.74 0.000000 ---
4201.00 1148.50 0.000000 ---
4101.00 1148.26 0.000000 ---
4001.00 1148.03 0.000000 ---
3901.00 1147.79 0.000000 ---
3801.00 1147.55 0.000000 ---
3701.00 1147.32 0.000000 ---
3601.00 1147.09 0.000000 ---
3501.00 1146.86 0.000000 ---
3401.00 1146.63 0.000000 ---
3301.00 1146.40 0.000000 ---
3201.00 1146.17 0.000000 ---
3101.00 1145.95 0.000000 ---
3001.00 1145.73 0.000000 ---
2901.00 1145.51 0.000000 ---
2801.00 1145.29 0.000000 ---
2701.00 1145.08 0.000000 ---
2601.00 1144.87 0.000000 ---
2501.00 1144.66 0.000000 ---
2401.00 1144.45 0.000000 ---
2301.00 1144.25 0.000000 ---
2201.00 1144.05 0.000000 ---
2101.00 1143.85 0.000000 ---
2001.00 1143.65 0.000000 ---
1901.00 1143.45 0.000000 ---
1801.00 1143.26 0.000000 ---
1701.00 1143.07 0.000000 ---
1601.00 1142.87 0.000000 ---
1501.00 1142.69 0.000000 ---
1401.00 1142.50 0.000000 ---
1301.00 1142.31 0.000000 ---
1201.00 1142.13 0.000000 ---
1101.00 1140.80 0.501387 58.1991 1.4465 17.3727 0.713935 0.087013 3.06545 0.00271827 6.66293 0.00132292 10.7123 1.73602
1001.00 1138.96 1.234698 58.3897 1.37305 17.3572 0.705145 0.0861891 3.02449 0.00263994 6.62022 0.00128233 10.7324 1.70759
901.00 1137.09 1.752639 58.5788 1.30207 17.3418 0.695949 0.0853884 2.98376 0.00256388 6.57722 0.00124294 10.7513 1.6799
801.00 1135.18 1.753975 58.7683 1.23116 17.3269 0.686286 0.0845821 2.94327 0.00248941 6.53398 0.00120445 10.7693 1.65255
701.00 1133.26 1.755531 58.9576 1.16055 17.3125 0.676181 0.0837714 2.90304 0.00241655 6.49053 0.00116685 10.7868 1.62546
601.00 1131.31 1.757313 59.1466 1.0905 17.2986 0.665659 0.0829571 2.86313 0.00234531 6.44692 0.00113015 10.8036 1.59853
501.00 1129.33 1.759325 59.3347 1.02124 17.2853 0.654747 0.0821398 2.82356 0.0022757 6.4032 0.00109435 10.82 1.57168
401.00 1127.33 1.761563 59.5217 0.953018 17.2726 0.643469 0.0813202 2.78437 0.00220769 6.3594 0.00105944 10.8361 1.54482
301.00 1125.29 1.764018 59.707 0.886065 17.2604 0.631853 0.0804984 2.74561 0.0021413 6.31558 0.0010254 10.852 1.51782
201.00 1123.23 1.766672 59.8903 0.820609 17.2488 0.619924 0.0796742 2.70732 0.00207649 6.27178 0.000992235 10.8679 1.49058
101.00 1121.13 1.769498 60.0712 0.756873 17.2379 0.607711 0.078847 2.66954 0.00201324 6.22806 0.000959919 10.8839 1.46296
1.00 1119.00 1.772456 60.2492 0.69507 17.2276 0.595243 0.0780157 2.63232 0.00195152 6.18447 0.000928436 10.9003 1.43482