Title: Depleted MORB Mantle of Workmann & Hart 2005

Phase Masses:
Pressure Temperature mass liquid_0 olivine_0 garnet_0 orthopyroxene_0 clinopyroxene_0 feldspar_0 spinel_0 
44001.00 1273.83 100.138999 0.000000 59.078388 13.594756 13.843771 12.607214 0.000000 1.014870 
43901.00 1273.64 100.138999 0.000000 59.077794 13.586632 13.851354 12.607671 0.000000 1.015548 
43801.00 1273.46 100.138999 0.000000 59.077196 13.578451 13.858979 12.608142 0.000000 1.016230 
43701.00 1273.27 100.138999 0.000000 59.076592 13.570214 13.866647 12.608628 0.000000 1.016918 
43601.00 1273.09 100.138999 0.000000 59.075985 13.561919 13.874357 12.609128 0.000000 1.017611 
43501.00 1272.90 100.138999 0.000000 59.075372 13.553565 13.882110 12.609642 0.000000 1.018309 
43401.00 1272.72 100.138999 0.000000 59.074755 13.545154 13.889907 12.610171 0.000000 1.019012 
43301.00 1272.53 100.138999 0.000000 59.074133 13.536683 13.897748 12.610715 0.000000 1.019721 
43201.00 1272.34 100.138999 0.000000 59.073505 13.528152 13.905632 12.611274 0.000000 1.020435 
43101.00 1272.16 100.138999 0.000000 59.072873 13.519561 13.913562 12.611848 0.000000 1.021155 
43001.00 1271.97 100.138999 0.000000 59.072236 13.510909 13.921536 12.612438 0.000000 1.021880 
42901.00 1271.79 100.138999 0.000000 59.071594 13.502196 13.929556 12.613042 0.000000 1.022610 
42801.00 1271.60 100.138999 0.000000 59.070946 13.493421 13.937622 12.613663 0.000000 1.023347 
42701.00 1271.42 100.138999 0.000000 59.070294 13.484583 13.945734 12.614299 0.000000 1.024089 
42601.00 1271.23 100.138999 0.000000 59.069636 13.475682 13.953893 12.614951 0.000000 1.024837 
42501.00 1271.05 100.138999 0.000000 59.068972 13.466717 13.962099 12.615619 0.000000 1.025591 
42401.00 1270.86 100.138999 0.000000 59.068303 13.457688 13.970353 12.616304 0.000000 1.026351 
42301.00 1270.68 100.138999 0.000000 59.067629 13.448594 13.978654 12.617005 0.000000 1.027118 
42201.00 1270.49 100.138999 0.000000 59.066948 13.439434 13.987004 12.617722 0.000000 1.027890 
42101.00 1270.31 100.138999 0.000000 59.066262 13.430208 13.995403 12.618457 0.000000 1.028669 
42001.00 1270.12 100.138999 0.000000 59.065571 13.420915 14.003851 12.619208 0.000000 1.029454 
41901.00 1269.94 100.138999 0.000000 59.064873 13.411554 14.012350 12.619977 0.000000 1.030245 
41801.00 1269.75 100.138999 0.000000 59.064169 13.402126 14.020898 12.620763 0.000000 1.031043 
41701.00 1269.56 100.138999 0.000000 59.063460 13.392628 14.029497 12.621566 0.000000 1.031848 
41601.00 1269.38 100.138999 0.000000 59.062744 13.383061 14.038147 12.622388 0.000000 1.032660 
41501.00 1269.19 100.138999 0.000000 59.062021 13.373423 14.046850 12.623227 0.000000 1.033478 
41401.00 1269.01 100.138999 0.000000 59.061293 13.363714 14.055604 12.624084 0.000000 1.034304 
41301.00 1268.82 100.138999 0.000000 59.060558 13.353934 14.064411 12.624960 0.000000 1.035136 
41201.00 1268.64 100.138999 0.000000 59.059816 13.344082 14.073271 12.625854 0.000000 1.035975 
41101.00 1268.45 100.138999 0.000000 59.059068 13.334156 14.082185 12.626767 0.000000 1.036822 
41001.00 1268.27 100.138999 0.000000 59.058313 13.324156 14.091154 12.627699 0.000000 1.037677 
40901.00 1268.08 100.138999 0.000000 59.057552 13.314082 14.100177 12.628650 0.000000 1.038538 
40801.00 1267.89 100.138999 0.000000 59.056783 13.303933 14.109256 12.629620 0.000000 1.039407 
40701.00 1267.71 100.138999 0.000000 59.056007 13.293707 14.118390 12.630610 0.000000 1.040284 
40601.00 1267.52 100.138999 0.000000 59.055224 13.283404 14.127581 12.631620 0.000000 1.041169 
40501.00 1267.34 100.138999 0.000000 59.054434 13.273024 14.136829 12.632650 0.000000 1.042062 
40401.00 1267.15 100.138999 0.000000 59.053636 13.262565 14.146135 12.633700 0.000000 1.042963 
40301.00 1266.96 100.138999 0.000000 59.052831 13.252027 14.155499 12.634770 0.000000 1.043872 
40201.00 1266.78 100.138999 0.000000 59.052019 13.241409 14.164921 12.635861 0.000000 1.044789 
40101.00 1266.59 100.138999 0.000000 59.051198 13.230710 14.174403 12.636973 0.000000 1.045715 
40001.00 1266.41 100.138999 0.000000 59.050370 13.219929 14.183945 12.638106 0.000000 1.046649 
39901.00 1266.22 100.138999 0.000000 59.049534 13.209065 14.193548 12.639260 0.000000 1.047592 
39801.00 1266.03 100.138999 0.000000 59.048689 13.198118 14.203211 12.640437 0.000000 1.048544 
39701.00 1265.85 100.138999 0.000000 59.047837 13.187086 14.212937 12.641634 0.000000 1.049505 
39601.00 1265.66 100.138999 0.000000 59.046976 13.175969 14.222725 12.642854 0.000000 1.050475 
39501.00 1265.48 100.138999 0.000000 59.046106 13.164765 14.232576 12.644097 0.000000 1.051454 
39401.00 1265.29 100.138999 0.000000 59.045228 13.153475 14.242492 12.645362 0.000000 1.052443 
39301.00 1265.10 100.138999 0.000000 59.044341 13.142096 14.252471 12.646649 0.000000 1.053441 
39201.00 1264.92 100.138999 0.000000 59.043446 13.130628 14.262516 12.647960 0.000000 1.054449 
39101.00 1264.73 100.138999 0.000000 59.042541 13.119070 14.272627 12.649295 0.000000 1.055467 
39001.00 1264.54 100.138999 0.000000 59.041627 13.107421 14.282804 12.650653 0.000000 1.056495 
38901.00 1264.36 100.138999 0.000000 59.040703 13.095680 14.293049 12.652035 0.000000 1.057533 
38801.00 1264.17 100.138999 0.000000 59.039770 13.083846 14.303361 12.653441 0.000000 1.058581 
38701.00 1263.98 100.138999 0.000000 59.038828 13.071918 14.313743 12.654871 0.000000 1.059640 
38601.00 1263.80 100.138999 0.000000 59.037875 13.059894 14.324194 12.656326 0.000000 1.060710 
38501.00 1263.61 100.138999 0.000000 59.036913 13.047774 14.334715 12.657807 0.000000 1.061790 
38401.00 1263.43 100.138999 0.000000 59.035940 13.035558 14.345307 12.659312 0.000000 1.062882 
38301.00 1263.24 100.138999 0.000000 59.034957 13.023242 14.355972 12.660844 0.000000 1.063985 
38201.00 1263.05 100.138999 0.000000 59.033963 13.010827 14.366709 12.662401 0.000000 1.065099 
38101.00 1262.87 100.138999 0.000000 59.032959 12.998312 14.377519 12.663985 0.000000 1.066225 
38001.00 1262.68 100.138999 0.000000 59.031944 12.985694 14.388404 12.665595 0.000000 1.067363 
37901.00 1262.49 100.138999 0.000000 59.030917 12.972974 14.399364 12.667231 0.000000 1.068512 
37801.00 1262.30 100.138999 0.000000 59.029880 12.960149 14.410400 12.668896 0.000000 1.069674 
37701.00 1262.12 100.138999 0.000000 59.028831 12.947219 14.421513 12.670587 0.000000 1.070849 
37601.00 1261.93 100.138999 0.000000 59.027770 12.934183 14.432704 12.672307 0.000000 1.072036 
37501.00 1261.74 100.138999 0.000000 59.026698 12.921038 14.443973 12.674054 0.000000 1.073236 
37401.00 1261.56 100.138999 0.000000 59.025613 12.907785 14.455322 12.675830 0.000000 1.074449 
37301.00 1261.37 100.138999 0.000000 59.024516 12.894421 14.466752 12.677635 0.000000 1.075675 
37201.00 1261.18 100.138999 0.000000 59.023407 12.880945 14.478263 12.679469 0.000000 1.076915 
37101.00 1260.99 100.138999 0.000000 59.022285 12.867356 14.489857 12.681333 0.000000 1.078169 
37001.00 1260.81 100.138999 0.000000 59.021150 12.853653 14.501534 12.683227 0.000000 1.079437 
36901.00 1260.62 100.138999 0.000000 59.020001 12.839833 14.513295 12.685150 0.000000 1.080719 
36801.00 1260.43 100.138999 0.000000 59.018840 12.825897 14.525143 12.687105 0.000000 1.082015 
36701.00 1260.25 100.138999 0.000000 59.017664 12.811842 14.537076 12.689090 0.000000 1.083327 
36601.00 1260.06 100.138999 0.000000 59.016475 12.797666 14.549097 12.691107 0.000000 1.084653 
36501.00 1259.87 100.138999 0.000000 59.015271 12.783369 14.561207 12.693156 0.000000 1.085995 
36401.00 1259.68 100.138999 0.000000 59.014053 12.768949 14.573407 12.695237 0.000000 1.087353 
36301.00 1259.49 100.138999 0.000000 59.012821 12.754404 14.585698 12.697350 0.000000 1.088726 
36201.00 1259.31 100.138999 0.000000 59.011573 12.739733 14.598080 12.699497 0.000000 1.090116 
36101.00 1259.12 100.138999 0.000000 59.010310 12.724935 14.610556 12.701677 0.000000 1.091522 
36001.00 1258.93 100.138999 0.000000 59.009031 12.710006 14.623126 12.703890 0.000000 1.092945 
35901.00 1258.74 100.138999 0.000000 59.007737 12.694947 14.635792 12.706138 0.000000 1.094385 
35801.00 1258.56 100.138999 0.000000 59.006427 12.679754 14.648555 12.708421 0.000000 1.095842 
35701.00 1258.37 100.138999 0.000000 59.005100 12.664428 14.661415 12.710739 0.000000 1.097317 
35601.00 1258.18 100.138999 0.000000 59.003756 12.648965 14.674375 12.713092 0.000000 1.098811 
35501.00 1257.99 100.138999 0.000000 59.002395 12.633364 14.687436 12.715482 0.000000 1.100322 
35401.00 1257.80 100.138999 0.000000 59.001017 12.617623 14.700598 12.717908 0.000000 1.101853 
35301.00 1257.61 100.138999 0.000000 58.999621 12.601740 14.713864 12.720371 0.000000 1.103403 
35201.00 1257.43 100.138999 0.000000 58.998207 12.585714 14.727235 12.722872 0.000000 1.104972 
35101.00 1257.24 100.138999 0.000000 58.996774 12.569543 14.740711 12.725410 0.000000 1.106561 
35001.00 1257.05 100.138999 0.000000 58.995323 12.553224 14.754295 12.727987 0.000000 1.108171 
34901.00 1256.86 100.138999 0.000000 58.993852 12.536755 14.767988 12.730603 0.000000 1.109801 
34801.00 1256.67 100.138999 0.000000 58.992362 12.520135 14.781791 12.733258 0.000000 1.111452 
34701.00 1256.48 100.138999 0.000000 58.990852 12.503362 14.795707 12.735954 0.000000 1.113125 
34601.00 1256.29 100.138999 0.000000 58.989322 12.486433 14.809735 12.738690 0.000000 1.114819 
34501.00 1256.10 100.138999 0.000000 58.987770 12.469346 14.823879 12.741467 0.000000 1.116536 
34401.00 1255.92 100.138999 0.000000 58.986198 12.452100 14.838140 12.744286 0.000000 1.118276 
34301.00 1255.73 100.138999 0.000000 58.984604 12.434691 14.852518 12.747147 0.000000 1.120039 
34201.00 1255.54 100.138999 0.000000 58.982988 12.417117 14.867017 12.750051 0.000000 1.121826 
34101.00 1255.35 100.138999 0.000000 58.981350 12.399377 14.881638 12.752998 0.000000 1.123637 
34001.00 1255.16 100.138999 0.000000 58.979688 12.381468 14.896381 12.755989 0.000000 1.125472 
33901.00 1254.97 100.138999 0.000000 58.978003 12.363387 14.911251 12.759025 0.000000 1.127333 
33801.00 1254.78 100.138999 0.000000 58.976294 12.345132 14.926247 12.762106 0.000000 1.129220 
33701.00 1254.59 100.138999 0.000000 58.974561 12.326700 14.941372 12.765234 0.000000 1.131133 
33601.00 1254.40 100.138999 0.000000 58.972803 12.308089 14.956627 12.768407 0.000000 1.133072 
33501.00 1254.21 100.138999 0.000000 58.971019 12.289297 14.972016 12.771628 0.000000 1.135039 
33401.00 1254.02 100.138999 0.000000 58.969209 12.270320 14.987539 12.774896 0.000000 1.137034 
33301.00 1253.83 100.138999 0.000000 58.967373 12.251156 15.003199 12.778213 0.000000 1.139058 
33201.00 1253.64 100.138999 0.000000 58.965510 12.231801 15.018998 12.781580 0.000000 1.141110 
33101.00 1253.45 100.138999 0.000000 58.963619 12.212254 15.034937 12.784996 0.000000 1.143192 
33001.00 1253.26 100.138999 0.000000 58.961700 12.192511 15.051020 12.788463 0.000000 1.145305 
32901.00 1253.07 100.138999 0.000000 58.959751 12.172570 15.067248 12.791982 0.000000 1.147448 
32801.00 1252.88 100.138999 0.000000 58.957774 12.152426 15.083623 12.795552 0.000000 1.149624 
32701.00 1252.69 100.138999 0.000000 58.955766 12.132078 15.100149 12.799176 0.000000 1.151831 
32601.00 1252.50 100.138999 0.000000 58.953727 12.111521 15.116826 12.802853 0.000000 1.154072 
32501.00 1252.31 100.138999 0.000000 58.951657 12.090753 15.133658 12.806585 0.000000 1.156346 
32401.00 1252.12 100.138999 0.000000 58.949554 12.069771 15.150647 12.810372 0.000000 1.158655 
32301.00 1251.92 100.138999 0.000000 58.947419 12.048570 15.167795 12.814215 0.000000 1.160999 
32201.00 1251.73 100.138999 0.000000 58.945250 12.027148 15.185106 12.818116 0.000000 1.163380 
32101.00 1251.54 100.138999 0.000000 58.943047 12.005500 15.202581 12.822074 0.000000 1.165797 
32001.00 1251.35 100.138999 0.000000 58.940808 11.983624 15.220224 12.826091 0.000000 1.168251 
31901.00 1251.16 100.138999 0.000000 58.938534 11.961515 15.238037 12.830168 0.000000 1.170744 
31801.00 1250.97 100.138999 0.000000 58.936223 11.939170 15.256023 12.834306 0.000000 1.173277 
31701.00 1250.78 100.138999 0.000000 58.933874 11.916585 15.274185 12.838505 0.000000 1.175850 
31601.00 1250.58 100.138999 0.000000 58.931486 11.893756 15.292526 12.842767 0.000000 1.178464 
31501.00 1250.39 100.138999 0.000000 58.929060 11.870679 15.311049 12.847092 0.000000 1.181120 
31401.00 1250.20 100.138999 0.000000 58.926593 11.847349 15.329757 12.851482 0.000000 1.183819 
31301.00 1250.01 100.138999 0.000000 58.924085 11.823762 15.348652 12.855938 0.000000 1.186562 
31201.00 1249.82 100.138999 0.000000 58.921534 11.799915 15.367740 12.860460 0.000000 1.189350 
31101.00 1249.62 100.138999 0.000000 58.918941 11.775802 15.387022 12.865050 0.000000 1.192184 
31001.00 1249.43 100.138999 0.000000 58.916303 11.751419 15.406502 12.869709 0.000000 1.195066 
30901.00 1249.24 100.138999 0.000000 58.913620 11.726761 15.426184 12.874439 0.000000 1.197996 
30801.00 1249.04 100.138999 0.000000 58.910891 11.701823 15.446071 12.879239 0.000000 1.200975 
30701.00 1248.85 100.138999 0.000000 58.908115 11.676601 15.466167 12.884112 0.000000 1.204004 
30601.00 1248.66 100.138999 0.000000 58.905290 11.651090 15.486475 12.889058 0.000000 1.207086 
30501.00 1248.46 100.138999 0.000000 58.902415 11.625284 15.507000 12.894079 0.000000 1.210220 
30401.00 1248.27 100.138999 0.000000 58.899490 11.599178 15.527745 12.899177 0.000000 1.213409 
30301.00 1248.08 100.138999 0.000000 58.896513 11.572767 15.548715 12.904352 0.000000 1.216653 
30201.00 1247.88 100.138999 0.000000 58.893482 11.546044 15.569913 12.909605 0.000000 1.219955 
30101.00 1247.69 100.138999 0.000000 58.890396 11.519006 15.591344 12.914939 0.000000 1.223314 
30001.00 1247.49 100.138999 0.000000 58.887255 11.491644 15.613013 12.920354 0.000000 1.226733 
29901.00 1247.30 100.138999 0.000000 58.884056 11.463955 15.634923 12.925853 0.000000 1.230213 
29801.00 1247.11 100.138999 0.000000 58.880799 11.435930 15.657079 12.931436 0.000000 1.233756 
29701.00 1246.91 100.138999 0.000000 58.877481 11.407565 15.679486 12.937104 0.000000 1.237363 
29601.00 1246.72 100.138999 0.000000 58.874102 11.378853 15.702148 12.942861 0.000000 1.241036 
29501.00 1246.52 100.138999 0.000000 58.870659 11.349787 15.725071 12.948706 0.000000 1.244776 
29401.00 1246.33 100.138999 0.000000 58.867152 11.320360 15.748260 12.954642 0.000000 1.248585 
29301.00 1246.13 100.138999 0.000000 58.863578 11.290566 15.771720 12.960671 0.000000 1.252464 
29201.00 1245.93 100.138999 0.000000 58.859936 11.260397 15.795456 12.966794 0.000000 1.256417 
29101.00 1245.74 100.138999 0.000000 58.856224 11.229846 15.819473 12.973012 0.000000 1.260443 
29001.00 1245.54 100.138999 0.000000 58.852441 11.198905 15.843778 12.979329 0.000000 1.264546 
28901.00 1245.35 100.138999 0.000000 58.848585 11.167568 15.868376 12.985744 0.000000 1.268727 
28801.00 1245.15 100.138999 0.000000 58.844653 11.135825 15.893272 12.992261 0.000000 1.272988 
28701.00 1244.95 100.138999 0.000000 58.840644 11.103669 15.918474 12.998882 0.000000 1.277331 
28601.00 1244.76 100.138999 0.000000 58.836555 11.071092 15.943987 13.005608 0.000000 1.281758 
28501.00 1244.56 100.138999 0.000000 58.832386 11.038085 15.969817 13.012441 0.000000 1.286271 
28401.00 1244.36 100.138999 0.000000 58.828133 11.004639 15.995971 13.019383 0.000000 1.290873 
28301.00 1244.16 100.138999 0.000000 58.823795 10.970745 16.022456 13.026437 0.000000 1.295566 
28201.00 1243.97 100.138999 0.000000 58.819369 10.936394 16.049279 13.033605 0.000000 1.300352 
28101.00 1243.77 100.138999 0.000000 58.814853 10.901577 16.076446 13.040889 0.000000 1.305234 
28001.00 1243.57 100.138999 0.000000 58.810245 10.866284 16.103965 13.048291 0.000000 1.310214 
27901.00 1243.37 100.138999 0.000000 58.805542 10.830504 16.131844 13.055815 0.000000 1.315295 
27801.00 1243.17 100.138999 0.000000 58.800741 10.794228 16.160090 13.063461 0.000000 1.320478 
27701.00 1242.97 100.138999 0.000000 58.795841 10.757446 16.188711 13.071233 0.000000 1.325768 
27601.00 1242.78 100.138999 0.000000 58.790839 10.720145 16.217715 13.079133 0.000000 1.331166 
27501.00 1242.58 100.138999 0.000000 58.785731 10.682316 16.247111 13.087165 0.000000 1.336676 
27401.00 1242.38 100.138999 0.000000 58.780516 10.643946 16.276906 13.095330 0.000000 1.342301 
27301.00 1242.18 100.138999 0.000000 58.775190 10.605025 16.307110 13.103631 0.000000 1.348043 
27201.00 1241.98 100.138999 0.000000 58.769750 10.565540 16.337731 13.112072 0.000000 1.353906 
27101.00 1241.78 100.138999 0.000000 58.764193 10.525478 16.368780 13.120655 0.000000 1.359893 
27001.00 1241.57 100.138999 0.000000 58.758516 10.484828 16.400264 13.129384 0.000000 1.366007 
26901.00 1241.37 100.138999 0.000000 58.752716 10.443575 16.432195 13.138261 0.000000 1.372251 
26801.00 1241.17 100.138999 0.000000 58.746790 10.401707 16.464582 13.147290 0.000000 1.378630 
26701.00 1240.97 100.138999 0.000000 58.740734 10.359210 16.497435 13.156474 0.000000 1.385147 
26601.00 1240.77 100.138999 0.000000 58.734544 10.316070 16.530765 13.165816 0.000000 1.391804 
26501.00 1240.57 100.138999 0.000000 58.728217 10.272272 16.564582 13.175320 0.000000 1.398608 
26401.00 1240.36 100.138999 0.000000 58.721750 10.227800 16.598899 13.184990 0.000000 1.405560 
26301.00 1240.16 100.138999 0.000000 58.715138 10.182641 16.633725 13.194829 0.000000 1.412665 
26201.00 1239.96 100.138999 0.000000 58.708378 10.136778 16.669074 13.204841 0.000000 1.419928 
26101.00 1239.75 100.138999 0.000000 58.701464 10.090195 16.704957 13.215030 0.000000 1.427352 
26001.00 1239.55 100.138999 0.000000 58.694395 10.042875 16.741386 13.225400 0.000000 1.434943 
25901.00 1239.35 100.138999 0.000000 58.687164 9.994801 16.778375 13.235955 0.000000 1.442704 
25801.00 1239.14 100.138999 0.000000 58.679768 9.945955 16.815936 13.246700 0.000000 1.450640 
25701.00 1238.94 100.138999 0.000000 58.672201 9.896319 16.854083 13.257638 0.000000 1.458756 
25601.00 1238.73 100.138999 0.000000 58.664460 9.845876 16.892830 13.268775 0.000000 1.467058 
25501.00 1238.52 100.138999 0.000000 58.656540 9.794604 16.932191 13.280115 0.000000 1.475549 
25401.00 1238.32 100.138999 0.000000 58.648435 9.742486 16.972181 13.291662 0.000000 1.484236 
25301.00 1238.11 100.138999 0.000000 58.640140 9.689499 17.012814 13.303422 0.000000 1.493123 
25201.00 1237.90 100.138999 0.000000 58.631650 9.635625 17.054107 13.315400 0.000000 1.502217 
25101.00 1237.70 100.138999 0.000000 58.622960 9.580840 17.096075 13.327601 0.000000 1.511522 
25001.00 1237.49 100.138999 0.000000 58.614064 9.525123 17.138735 13.340031 0.000000 1.521046 
24901.00 1237.28 100.138999 0.000000 58.604956 9.468452 17.182103 13.352695 0.000000 1.530794 
24801.00 1237.07 100.138999 0.000000 58.595630 9.410802 17.226197 13.365598 0.000000 1.540772 
24701.00 1236.86 100.138999 0.000000 58.586081 9.352150 17.271035 13.378747 0.000000 1.550986 
24601.00 1236.65 100.138999 0.000000 58.576301 9.292470 17.316635 13.392148 0.000000 1.561444 
24501.00 1236.44 100.138999 0.000000 58.566285 9.231738 17.363016 13.405808 0.000000 1.572153 
24401.00 1236.23 100.138999 0.000000 58.556025 9.169926 17.410198 13.419732 0.000000 1.583118 
24301.00 1236.02 100.138999 0.000000 58.545515 9.107007 17.458201 13.433927 0.000000 1.594349 
24201.00 1235.81 100.138999 0.000000 58.534747 9.042955 17.507045 13.448401 0.000000 1.605851 
24101.00 1235.60 100.138999 0.000000 58.523715 8.977738 17.556752 13.463160 0.000000 1.617634 
24001.00 1235.39 100.138999 0.000000 58.512410 8.911329 17.607344 13.478213 0.000000 1.629704 
23901.00 1235.17 100.138999 0.000000 58.500824 8.843695 17.658843 13.493566 0.000000 1.642071 
23801.00 1234.96 100.138999 0.000000 58.488950 8.774805 17.711274 13.509227 0.000000 1.654743 
23701.00 1234.74 100.138999 0.000000 58.476779 8.704627 17.764659 13.525206 0.000000 1.667728 
