Title: Depleted MORB Mantle of Workmann & Hart 2005

System Thermodynamic Data:
Pressure Temperature mass F phi S H V Cp dVdP*10^6 dVdT*10^6 fO2(absolute) fO2(absolute) rhol rhos viscosity aH2O chisqr
44001.00 1531.60 100.138999 0.0010268096872242 0.001047 262.790116 -1134798.142077 30.404626 125.825098 -20.003937 1506.658544 -7.392 -7.392 3.229370 3.293612 -0.513 0 0.000
43901.00 1531.38 100.138999 0.0010032961884117 0.001024 262.790116 -1135102.198323 30.406624 125.831883 -20.010111 1506.605868 -7.400 -7.400 3.228076 3.293395 -0.511 0 0.000
43801.00 1531.15 100.138999 0.0009802146696217 0.001000 262.790116 -1135406.274560 30.408624 125.838683 -20.016311 1506.552944 -7.407 -7.407 3.226784 3.293178 -0.510 0 0.000
43701.00 1530.92 100.138999 0.0009575654034798 0.000978 262.790116 -1135710.370815 30.410627 125.845500 -20.022536 1506.499779 -7.414 -7.414 3.225492 3.292961 -0.508 0 0.000
43601.00 1530.70 100.138999 0.0009353487199294 0.000955 262.790116 -1136014.487115 30.412633 125.852331 -20.028788 1506.446378 -7.421 -7.421 3.224200 3.292743 -0.506 0 0.000
43501.00 1530.47 100.138999 0.0009135650165689 0.000933 262.790116 -1136318.623487 30.414642 125.859178 -20.035065 1506.392748 -7.428 -7.428 3.222910 3.292525 -0.504 0 0.000
43401.00 1530.24 100.138999 0.0008922147473806 0.000912 262.790116 -1136622.779958 30.416653 125.866041 -20.041368 1506.338894 -7.435 -7.435 3.221620 3.292307 -0.503 0 0.000
43301.00 1530.01 100.138999 0.0008712984284339 0.000891 262.790116 -1136926.956555 30.418667 125.872919 -20.047698 1506.284823 -7.442 -7.442 3.220330 3.292088 -0.501 0 0.000
43201.00 1529.79 100.138999 0.0008508166374694 0.000870 262.790116 -1137231.153308 30.420684 125.879813 -20.054054 1506.230541 -7.449 -7.449 3.219042 3.291870 -0.499 0 0.000
43101.00 1529.56 100.138999 0.0008307700149038 0.000850 262.790116 -1137535.370243 30.422704 125.886722 -20.060438 1506.176055 -7.456 -7.456 3.217753 3.291651 -0.497 0 0.000
43001.00 1529.33 100.138999 0.0008111592627418 0.000830 262.790116 -1137839.607390 30.424726 125.893648 -20.066848 1506.121370 -7.462 -7.462 3.216466 3.291431 -0.495 0 0.000
42901.00 1529.10 100.138999 0.0007919851447787 0.000811 262.790116 -1138143.864778 30.426752 125.900589 -20.073286 1506.066493 -7.469 -7.469 3.215179 3.291211 -0.494 0 0.000
42801.00 1528.87 100.138999 0.0007732484908983 0.000792 262.790116 -1138448.142436 30.428780 125.907546 -20.079751 1506.011431 -7.475 -7.475 3.213893 3.290991 -0.492 0 0.000
42701.00 1528.64 100.138999 0.0007549501895907 0.000773 262.790116 -1138752.440395 30.430812 125.914519 -20.086244 1505.956190 -7.482 -7.482 3.212608 3.290771 -0.490 0 0.000
42601.00 1528.41 100.138999 0.0007370911962752 0.000755 262.790116 -1139056.758683 30.432846 125.921508 -20.092766 1505.900778 -7.488 -7.488 3.211324 3.290551 -0.488 0 0.000
42501.00 1528.18 100.138999 0.0007196725291554 0.000738 262.790116 -1139361.097331 30.434884 125.928513 -20.099315 1505.845200 -7.495 -7.495 3.210040 3.290330 -0.486 0 0.000
42401.00 1527.95 100.138999 0.0007026952710877 0.000720 262.790116 -1139665.456371 30.436925 125.935535 -20.105893 1505.789464 -7.501 -7.501 3.208757 3.290108 -0.484 0 0.000
42301.00 1527.72 100.138999 0.0006861605696689 0.000704 262.790116 -1139969.835834 30.438968 125.942572 -20.112500 1505.733577 -7.507 -7.507 3.207474 3.289887 -0.482 0 0.000
42201.00 1527.49 100.138999 0.0006700696368692 0.000688 262.790116 -1140274.235750 30.441015 125.949626 -20.119136 1505.677546 -7.513 -7.513 3.206192 3.289665 -0.480 0 0.000
42101.00 1527.25 100.138999 0.0006544237534347 0.000672 262.790116 -1140578.656153 30.443066 125.956696 -20.125802 1505.621378 -7.519 -7.519 3.204912 3.289443 -0.478 0 0.000
42001.00 1527.02 100.138999 0.0006392242614743 0.000656 262.790116 -1140883.097074 30.445119 125.963783 -20.132497 1505.565081 -7.525 -7.525 3.203631 3.289220 -0.476 0 0.000
41901.00 1526.79 100.138999 0.0006244725719942 0.000641 262.790116 -1141187.558547 30.447176 125.970886 -20.139223 1505.508662 -7.531 -7.531 3.202352 3.288998 -0.474 0 0.000
41801.00 1526.56 100.138999 0.0006101701652952 0.000627 262.790116 -1141492.040604 30.449236 125.978006 -20.145978 1505.452129 -7.537 -7.537 3.201073 3.288775 -0.472 0 0.000
41701.00 1526.32 100.138999 0.0005963185845714 0.000613 262.790116 -1141796.543279 30.451300 125.985143 -20.152765 1505.395489 -7.543 -7.543 3.199796 3.288551 -0.470 0 0.000
41601.00 1526.09 100.138999 0.0005829194445666 0.000599 262.790116 -1142101.066606 30.453366 125.992297 -20.159582 1505.338750 -7.549 -7.549 3.198518 3.288327 -0.468 0 0.000
41501.00 1525.85 100.138999 0.0005699744250708 0.000586 262.790116 -1142405.610620 30.455437 125.999467 -20.166430 1505.281921 -7.554 -7.554 3.197242 3.288103 -0.466 0 0.000
41401.00 1525.62 100.138999 0.0005574852791773 0.000574 262.790116 -1142710.175354 30.457511 126.006655 -20.173310 1505.225009 -7.560 -7.560 3.195967 3.287879 -0.464 0 0.000
41301.00 1525.39 100.138999 0.0005454538300263 0.000561 262.790116 -1143014.760846 30.459588 126.013860 -20.180222 1505.168023 -7.565 -7.565 3.194692 3.287654 -0.462 0 0.000
41201.00 1525.15 100.138999 0.0005338819646249 0.000550 262.790116 -1143319.367130 30.461669 126.021082 -20.187166 1505.110971 -7.571 -7.571 3.193418 3.287429 -0.460 0 0.000
41101.00 1524.91 100.138999 0.0005227716457441 0.000538 262.790116 -1143623.994242 30.463754 126.028321 -20.194142 1505.053861 -7.576 -7.576 3.192145 3.287203 -0.458 0 0.000
41001.00 1524.68 100.138999 0.0005121249068341 0.000528 262.790116 -1143928.642220 30.465842 126.035578 -20.201152 1504.996703 -7.581 -7.581 3.190873 3.286978 -0.456 0 0.000
40901.00 1524.44 100.138999 0.0005019438531155 0.000517 262.790116 -1144233.311100 30.467934 126.042853 -20.208195 1504.939504 -7.587 -7.587 3.189602 3.286752 -0.454 0 0.000
40801.00 1524.21 100.138999 0.0004922306631935 0.000507 262.790116 -1144538.000921 30.470030 126.050145 -20.215271 1504.882275 -7.592 -7.592 3.188331 3.286525 -0.452 0 0.000
40701.00 1523.97 100.138999 0.0004829875865983 0.000498 262.790116 -1144842.711719 30.472130 126.057455 -20.222382 1504.825023 -7.597 -7.597 3.187062 3.286298 -0.450 0 0.000
40601.00 1523.73 100.138999 0.0004742169500596 0.000489 262.790116 -1145147.443534 30.474234 126.064783 -20.229527 1504.767759 -7.602 -7.602 3.185793 3.286071 -0.448 0 0.000
40501.00 1523.49 100.138999 0.0004659211537462 0.000481 262.790116 -1145452.196404 30.476341 126.072129 -20.236707 1504.710492 -7.607 -7.607 3.184525 3.285843 -0.445 0 0.000
40401.00 1523.26 100.138999 0.0004581026735586 0.000473 262.790116 -1145756.970370 30.478453 126.079494 -20.243922 1504.653231 -7.612 -7.612 3.183258 3.285615 -0.443 0 0.000
40301.00 1523.02 100.138999 0.0004507640605443 0.000465 262.790116 -1146061.765471 30.480568 126.086877 -20.251172 1504.595986 -7.616 -7.616 3.181992 3.285387 -0.441 0 0.000
40201.00 1522.78 100.138999 0.0004439079462335 0.000458 262.790116 -1146366.581748 30.482688 126.094278 -20.258459 1504.538767 -7.621 -7.621 3.180727 3.285158 -0.439 0 0.000
40101.00 1522.54 100.138999 0.0004375370328777 0.000452 262.790116 -1146671.419242 30.484812 126.101699 -20.265782 1504.481585 -7.626 -7.626 3.179463 3.284929 -0.437 0 0.000
40001.00 1522.30 100.138999 0.0004316541087894 0.000446 262.790116 -1146976.277995 30.486940 126.109138 -20.273142 1504.424448 -7.630 -7.630 3.178200 3.284700 -0.434 0 0.000
39901.00 1522.06 100.138999 0.0004262620426759 0.000441 262.790116 -1147281.158049 30.489072 126.116596 -20.280539 1504.367369 -7.635 -7.635 3.176938 3.284470 -0.432 0 0.000
39801.00 1521.82 100.138999 0.0004213637772627 0.000436 262.790116 -1147586.059447 30.491208 126.124073 -20.287974 1504.310358 -7.639 -7.639 3.175676 3.284240 -0.430 0 0.000
39701.00 1521.58 100.138999 0.0004169623390456 0.000431 262.790116 -1147890.982232 30.493349 126.131569 -20.295447 1504.253425 -7.643 -7.643 3.174416 3.284009 -0.428 0 0.000
39601.00 1521.34 100.138999 0.0004130608383056 0.000427 262.790116 -1148195.926448 30.495495 126.139085 -20.302959 1504.196582 -7.648 -7.648 3.173156 3.283778 -0.425 0 0.000
39501.00 1521.10 100.138999 0.0004096624698740 0.000424 262.790116 -1148500.892140 30.497644 126.146621 -20.310510 1504.139840 -7.652 -7.652 3.171898 3.283547 -0.423 0 0.000
39401.00 1520.85 100.138999 0.0004067705059790 0.000421 262.790116 -1148805.879352 30.499799 126.154176 -20.318100 1504.083209 -7.656 -7.656 3.170641 3.283315 -0.421 0 0.000
39301.00 1520.61 100.138999 0.0004043883137361 0.000419 262.790116 -1149110.888131 30.501958 126.161752 -20.325731 1504.026703 -7.660 -7.660 3.169384 3.283083 -0.418 0 0.000
39201.00 1520.37 100.138999 0.0004025193413291 0.000417 262.790116 -1149415.918522 30.504121 126.169348 -20.333403 1503.970333 -7.664 -7.664 3.168129 3.282850 -0.416 0 0.000
39101.00 1520.13 100.138999 0.0004011671227909 0.000416 262.790116 -1149720.970574 30.506290 126.176964 -20.341115 1503.914110 -7.668 -7.668 3.166874 3.282617 -0.413 0 0.000
39001.00 1519.88 100.138999 0.0004003352848113 0.000415 262.790116 -1150026.044332 30.508463 126.184600 -20.348869 1503.858048 -7.671 -7.671 3.165621 3.282384 -0.411 0 0.000
38901.00 1519.64 100.138999 0.0004000275433114 0.000415 262.790116 -1150331.139847 30.510641 126.192258 -20.356665 1503.802158 -7.675 -7.675 3.164369 3.282150 -0.409 0 0.000
38801.00 1519.39 100.138999 0.0004002477014559 0.000415 262.790116 -1150636.257166 30.512824 126.199936 -20.364505 1503.746454 -7.679 -7.679 3.163117 3.281915 -0.406 0 0.000
38701.00 1519.15 100.138999 0.0004009996578968 0.000416 262.790116 -1150941.396339 30.515012 126.207636 -20.372387 1503.690949 -7.682 -7.682 3.161867 3.281681 -0.404 0 0.000
38601.00 1518.90 100.138999 0.0004022874075101 0.000418 262.790116 -1151246.557417 30.517205 126.215356 -20.380313 1503.635655 -7.686 -7.686 3.160618 3.281445 -0.401 0 0.000
38501.00 1518.66 100.138999 0.0004041150316115 0.000420 262.790116 -1151551.740450 30.519403 126.223099 -20.388284 1503.580586 -7.689 -7.689 3.159370 3.281210 -0.399 0 0.000
38401.00 1518.41 100.138999 0.0004064867121779 0.000422 262.790116 -1151856.945490 30.521606 126.230863 -20.396299 1503.525756 -7.692 -7.692 3.158123 3.280974 -0.396 0 0.000
38301.00 1518.17 100.138999 0.0004094067335566 0.000425 262.790116 -1152162.172590 30.523815 126.238650 -20.404360 1503.471178 -7.696 -7.696 3.156877 3.280737 -0.394 0 0.000
38201.00 1517.92 100.138999 0.0004128794721881 0.000429 262.790116 -1152467.421803 30.526029 126.246458 -20.412468 1503.416868 -7.699 -7.699 3.155633 3.280500 -0.391 0 0.000
38101.00 1517.67 100.138999 0.0004169094024247 0.000434 262.790116 -1152772.693182 30.528248 126.254289 -20.420622 1503.362839 -7.702 -7.702 3.154389 3.280262 -0.389 0 0.000
38001.00 1517.42 100.138999 0.0004215011110441 0.000438 262.790116 -1153077.986783 30.530473 126.262143 -20.428823 1503.309107 -7.705 -7.705 3.153147 3.280024 -0.386 0 0.000
37901.00 1517.18 100.138999 0.0004266592797373 0.000444 262.790116 -1153383.302661 30.532703 126.270020 -20.437073 1503.255685 -7.708 -7.708 3.151906 3.279786 -0.384 0 0.000
37801.00 1516.93 100.138999 0.0004323886977527 0.000450 262.790116 -1153688.640871 30.534940 126.277920 -20.445371 1503.202590 -7.711 -7.711 3.150665 3.279547 -0.381 0 0.000
37701.00 1516.68 100.138999 0.0004386942609225 0.000457 262.790116 -1153994.001472 30.537182 126.285843 -20.453719 1503.149837 -7.713 -7.713 3.149427 3.279308 -0.378 0 0.000
37601.00 1516.43 100.138999 0.0004455809731726 0.000464 262.790116 -1154299.384521 30.539429 126.293790 -20.462117 1503.097441 -7.716 -7.716 3.148189 3.279068 -0.376 0 0.000
37501.00 1516.18 100.138999 0.0004530539487317 0.000472 262.790116 -1154604.790076 30.541683 126.301762 -20.470566 1503.045420 -7.719 -7.719 3.146952 3.278827 -0.373 0 0.000
37401.00 1515.93 100.138999 0.0004611184134164 0.000481 262.790116 -1154910.218198 30.543943 126.309757 -20.479066 1502.993788 -7.721 -7.721 3.145717 3.278586 -0.370 0 0.000
37301.00 1515.68 100.138999 0.0004697797068915 0.000490 262.790116 -1155215.668947 30.546208 126.317777 -20.487618 1502.942564 -7.724 -7.724 3.144483 3.278345 -0.368 0 0.000
37201.00 1515.43 100.138999 0.0004790432843001 0.000500 262.790116 -1155521.142383 30.548480 126.325822 -20.496223 1502.891763 -7.726 -7.726 3.143250 3.278103 -0.365 0 0.000
37101.00 1515.17 100.138999 0.0004889147183851 0.000510 262.790116 -1155826.638570 30.550758 126.333892 -20.504882 1502.841404 -7.728 -7.728 3.142019 3.277860 -0.362 0 0.000
37001.00 1514.92 100.138999 0.0004993997013067 0.000521 262.790116 -1156132.157570 30.553043 126.341987 -20.513595 1502.791503 -7.730 -7.730 3.140789 3.277617 -0.360 0 0.000
36901.00 1514.67 100.138999 0.0005105040467958 0.000533 262.790116 -1156437.699448 30.555334 126.350108 -20.522364 1502.742080 -7.733 -7.733 3.139560 3.277374 -0.357 0 0.000
36801.00 1514.41 100.138999 0.0005222336923141 0.000545 262.790116 -1156743.264268 30.557631 126.358255 -20.531188 1502.693151 -7.735 -7.735 3.138332 3.277129 -0.354 0 0.000
36701.00 1514.16 100.138999 0.0005345947026538 0.000558 262.790116 -1157048.852097 30.559936 126.366429 -20.540070 1502.644735 -7.737 -7.737 3.137106 3.276885 -0.351 0 0.000
36601.00 1513.91 100.138999 0.0005475932662836 0.000572 262.790116 -1157354.463001 30.562246 126.374628 -20.549009 1502.596852 -7.739 -7.739 3.135880 3.276639 -0.349 0 0.000
36501.00 1513.65 100.138999 0.0005612357071739 0.000587 262.790116 -1157660.097049 30.564564 126.382855 -20.558006 1502.549521 -7.740 -7.740 3.134657 3.276394 -0.346 0 0.000
36401.00 1513.40 100.138999 0.0005755284800806 0.000602 262.790116 -1157965.754309 30.566889 126.391110 -20.567063 1502.502761 -7.742 -7.742 3.133434 3.276147 -0.343 0 0.000
36301.00 1513.14 100.138999 0.0005904781747259 0.000618 262.790116 -1158271.434852 30.569221 126.399391 -20.576179 1502.456592 -7.744 -7.744 3.132213 3.275900 -0.340 0 0.000
36201.00 1512.88 100.138999 0.0006060915189211 0.000634 262.790116 -1158577.138748 30.571560 126.407701 -20.585357 1502.411034 -7.745 -7.745 3.130994 3.275652 -0.337 0 0.000
36101.00 1512.63 100.138999 0.0006223753802891 0.000651 262.790116 -1158882.866070 30.573906 126.416039 -20.594597 1502.366109 -7.747 -7.747 3.129775 3.275404 -0.334 0 0.000
36001.00 1512.37 100.138999 0.0006393367716992 0.000669 262.790116 -1159188.616891 30.576260 126.424406 -20.603900 1502.321837 -7.748 -7.748 3.128559 3.275155 -0.331 0 0.000
35901.00 1512.11 100.138999 0.0006569828473206 0.000688 262.790116 -1159494.391286 30.578621 126.432802 -20.613266 1502.278239 -7.750 -7.750 3.127343 3.274906 -0.328 0 0.000
35801.00 1511.85 100.138999 0.0006753209165681 0.000707 262.790116 -1159800.189331 30.580989 126.441227 -20.622697 1502.235338 -7.751 -7.751 3.126129 3.274656 -0.325 0 0.000
35701.00 1511.59 100.138999 0.0006943584334684 0.000728 262.790116 -1160106.011101 30.583366 126.449683 -20.632194 1502.193155 -7.752 -7.752 3.124916 3.274405 -0.323 0 0.000
35601.00 1511.33 100.138999 0.0007141030097129 0.000748 262.790116 -1160411.856675 30.585750 126.458168 -20.641758 1502.151714 -7.754 -7.754 3.123705 3.274154 -0.320 0 0.000
35501.00 1511.07 100.138999 0.0007345624162381 0.000770 262.790116 -1160717.726132 30.588143 126.466684 -20.651390 1502.111036 -7.755 -7.755 3.122496 3.273902 -0.317 0 0.000
35401.00 1510.81 100.138999 0.0007557445809144 0.000793 262.790116 -1161023.619553 30.590543 126.475231 -20.661090 1502.071146 -7.756 -7.756 3.121287 3.273649 -0.314 0 0.000
35301.00 1510.55 100.138999 0.0007776575980647 0.000816 262.790116 -1161329.537019 30.592952 126.483809 -20.670860 1502.032067 -7.757 -7.757 3.120081 3.273395 -0.310 0 0.000
35201.00 1510.29 100.138999 0.0008003097287291 0.000840 262.790116 -1161635.478614 30.595369 126.492419 -20.680701 1501.993824 -7.758 -7.758 3.118875 3.273141 -0.307 0 0.000
35101.00 1510.02 100.138999 0.0008237094056533 0.000865 262.790116 -1161941.444421 30.597794 126.501062 -20.690614 1501.956441 -7.758 -7.758 3.117672 3.272886 -0.304 0 0.000
35001.00 1509.76 100.138999 0.0008478652330508 0.000890 262.790116 -1162247.434526 30.600228 126.509737 -20.700600 1501.919944 -7.759 -7.759 3.116470 3.272631 -0.301 0 0.000
34901.00 1509.50 100.138999 0.0008727859944945 0.000917 262.790116 -1162553.449016 30.602671 126.518445 -20.710660 1501.884357 -7.760 -7.760 3.115269 3.272375 -0.298 0 0.000
34801.00 1509.23 100.138999 0.0008984806581273 0.000944 262.790116 -1162859.487980 30.605123 126.527187 -20.720796 1501.849707 -7.760 -7.760 3.114070 3.272118 -0.295 0 0.000
34701.00 1508.97 100.138999 0.0009249583723707 0.000972 262.790116 -1163165.551507 30.607584 126.535964 -20.731008 1501.816020 -7.761 -7.761 3.112872 3.271860 -0.292 0 0.000
34601.00 1508.70 100.138999 0.0009522284780514 0.001001 262.790116 -1163471.639689 30.610054 126.544774 -20.741298 1501.783324 -7.761 -7.761 3.111676 3.271602 -0.289 0 0.000
34501.00 1508.44 100.138999 0.0009803005090486 0.001031 262.790116 -1163777.752619 30.612533 126.553620 -20.751667 1501.751646 -7.762 -7.762 3.110482 3.271342 -0.286 0 0.000
34401.00 1508.17 100.138999 0.0010091841967592 0.001062 262.790116 -1164083.890390 30.615022 126.562501 -20.762116 1501.721013 -7.762 -7.762 3.109289 3.271082 -0.282 0 0.000
34301.00 1507.90 100.138999 0.0010388894750453 0.001093 262.790116 -1164390.053099 30.617521 126.571419 -20.772647 1501.691455 -7.762 -7.762 3.108098 3.270821 -0.279 0 0.000
34201.00 1507.63 100.138999 0.0010694264819510 0.001126 262.790116 -1164696.240844 30.620029 126.580373 -20.783261 1501.663000 -7.763 -7.763 3.106909 3.270560 -0.276 0 0.000
34101.00 1507.36 100.138999 0.0011008055697167 0.001159 262.790116 -1165002.453722 30.622548 126.589364 -20.793959 1501.635677 -7.763 -7.763 3.105721 3.270297 -0.273 0 0.000
34001.00 1507.10 100.138999 0.0011330373039226 0.001193 262.790116 -1165308.691835 30.625076 126.598393 -20.804742 1501.609518 -7.763 -7.763 3.104535 3.270034 -0.269 0 0.000
33901.00 1506.83 100.138999 0.0011661324710964 0.001229 262.790116 -1165614.955284 30.627615 126.607460 -20.815613 1501.584551 -7.763 -7.763 3.103351 3.269770 -0.266 0 0.000
33801.00 1506.55 100.138999 0.0012001020830450 0.001265 262.790116 -1165921.244175 30.630165 126.616566 -20.826572 1501.560809 -7.763 -7.763 3.102168 3.269505 -0.263 0 0.000
33701.00 1506.28 100.138999 0.0012349573822851 0.001302 262.790116 -1166227.558613 30.632725 126.625711 -20.837620 1501.538324 -7.763 -7.763 3.100987 3.269239 -0.260 0 0.000
33601.00 1506.01 100.138999 0.0012707098454424 0.001340 262.790116 -1166533.898706 30.635296 126.634896 -20.848760 1501.517126 -7.762 -7.762 3.099808 3.268973 -0.256 0 0.000
33501.00 1505.74 100.138999 0.0013073711926112 0.001379 262.790116 -1166840.264562 30.637878 126.644122 -20.859992 1501.497250 -7.762 -7.762 3.098630 3.268705 -0.253 0 0.000
33401.00 1505.46 100.138999 0.0013449533886666 0.001419 262.790116 -1167146.656293 30.640471 126.653389 -20.871319 1501.478729 -7.762 -7.762 3.097455 3.268437 -0.249 0 0.000
33301.00 1505.19 100.138999 0.0013834686502305 0.001460 262.790116 -1167453.074013 30.643075 126.662698 -20.882742 1501.461597 -7.762 -7.762 3.096281 3.268167 -0.246 0 0.000
33201.00 1504.91 100.138999 0.0014229294531126 0.001502 262.790116 -1167759.517836 30.645691 126.672049 -20.894262 1501.445888 -7.761 -7.761 3.095109 3.267897 -0.243 0 0.000
33101.00 1504.64 100.138999 0.0014633485357399 0.001545 262.790116 -1168065.987879 30.648319 126.681443 -20.905882 1501.431638 -7.761 -7.761 3.093938 3.267625 -0.239 0 0.000
33001.00 1504.36 100.138999 0.0015047389088446 0.001590 262.790116 -1168372.484262 30.650959 126.690881 -20.917602 1501.418883 -7.760 -7.760 3.092770 3.267353 -0.236 0 0.000
32901.00 1504.09 100.138999 0.0015471138567804 0.001635 262.790116 -1168679.007105 30.653611 126.700364 -20.929424 1501.407660 -7.760 -7.760 3.091603 3.267080 -0.232 0 0.000
32801.00 1503.81 100.138999 0.0015904869480275 0.001681 262.790116 -1168985.556533 30.656276 126.709892 -20.941351 1501.398006 -7.759 -7.759 3.090438 3.266805 -0.229 0 0.000
