Title: Depleted MORB Mantle of Workmann & Hart 2005

Bulk Composition:
Pressure Temperature mass SiO2 TiO2 Al2O3 Fe2O3 Cr2O3 FeO MnO MgO NiO CaO Na2O 
44001.00 1412.71 100.138996 44.6479 0.12982 3.97448 0.190735 0.569209 7.99689 0.12982 38.6762 0.239667 3.1656 0.279611
43901.00 1412.50 100.138996 44.6479 0.12982 3.97448 0.190735 0.569209 7.99689 0.12982 38.6762 0.239667 3.1656 0.279611
43801.00 1412.28 100.138996 44.6479 0.12982 3.97448 0.190735 0.569209 7.99689 0.12982 38.6762 0.239667 3.1656 0.279611
43701.00 1412.07 100.138996 44.6479 0.12982 3.97448 0.190735 0.569209 7.99689 0.12982 38.6762 0.239667 3.1656 0.279611
43601.00 1411.86 100.138996 44.6479 0.12982 3.97448 0.190735 0.569209 7.99689 0.12982 38.6762 0.239667 3.1656 0.279611
43501.00 1411.64 100.138996 44.6479 0.12982 3.97448 0.190735 0.569209 7.99689 0.12982 38.6762 0.239667 3.1656 0.279611
43401.00 1411.43 100.138996 44.6479 0.12982 3.97448 0.190735 0.569209 7.99689 0.12982 38.6762 0.239667 3.1656 0.279611
43301.00 1411.22 100.138996 44.6479 0.12982 3.97448 0.190735 0.569209 7.99689 0.12982 38.6762 0.239667 3.1656 0.279611
43201.00 1411.01 100.138996 44.6479 0.12982 3.97448 0.190735 0.569209 7.99689 0.12982 38.6762 0.239667 3.1656 0.279611
43101.00 1410.79 100.138996 44.6479 0.12982 3.97448 0.190735 0.569209 7.99689 0.12982 38.6762 0.239667 3.1656 0.279611
43001.00 1410.58 100.138996 44.6479 0.12982 3.97448 0.190735 0.569209 7.99689 0.12982 38.6762 0.239667 3.1656 0.279611
42901.00 1410.37 100.138996 44.6479 0.12982 3.97448 0.190735 0.569209 7.99689 0.12982 38.6762 0.239667 3.1656 0.279611
42801.00 1410.16 100.138996 44.6479 0.12982 3.97448 0.190735 0.569209 7.99689 0.12982 38.6762 0.239667 3.1656 0.279611
42701.00 1409.94 100.138996 44.6479 0.12982 3.97448 0.190735 0.569209 7.99689 0.12982 38.6762 0.239667 3.1656 0.279611
42601.00 1409.73 100.138996 44.6479 0.12982 3.97448 0.190735 0.569209 7.99689 0.12982 38.6762 0.239667 3.1656 0.279611
42501.00 1409.52 100.138996 44.6479 0.12982 3.97448 0.190735 0.569209 7.99689 0.12982 38.6762 0.239667 3.1656 0.279611
42401.00 1409.30 100.138996 44.6479 0.12982 3.97448 0.190735 0.569209 7.99689 0.12982 38.6762 0.239667 3.1656 0.279611
42301.00 1409.09 100.138996 44.6479 0.12982 3.97448 0.190735 0.569209 7.99689 0.12982 38.6762 0.239667 3.1656 0.279611
42201.00 1408.88 100.138996 44.6479 0.12982 3.97448 0.190735 0.569209 7.99689 0.12982 38.6762 0.239667 3.1656 0.279611
42101.00 1408.66 100.138996 44.6479 0.12982 3.97448 0.190735 0.569209 7.99689 0.12982 38.6762 0.239667 3.1656 0.279611
42001.00 1408.45 100.138996 44.6479 0.12982 3.97448 0.190735 0.569209 7.99689 0.12982 38.6762 0.239667 3.1656 0.279611
41901.00 1408.24 100.138996 44.6479 0.12982 3.97448 0.190735 0.569209 7.99689 0.12982 38.6762 0.239667 3.1656 0.279611
41801.00 1408.02 100.138996 44.6479 0.12982 3.97448 0.190735 0.569209 7.99689 0.12982 38.6762 0.239667 3.1656 0.279611
41701.00 1407.81 100.138996 44.6479 0.12982 3.97448 0.190735 0.569209 7.99689 0.12982 38.6762 0.239667 3.1656 0.279611
41601.00 1407.60 100.138996 44.6479 0.12982 3.97448 0.190735 0.569209 7.99689 0.12982 38.6762 0.239667 3.1656 0.279611
41501.00 1407.38 100.138996 44.6479 0.12982 3.97448 0.190735 0.569209 7.99689 0.12982 38.6762 0.239667 3.1656 0.279611
41401.00 1407.17 100.138996 44.6479 0.12982 3.97448 0.190735 0.569209 7.99689 0.12982 38.6762 0.239667 3.1656 0.279611
41301.00 1406.96 100.138996 44.6479 0.12982 3.97448 0.190735 0.569209 7.99689 0.12982 38.6762 0.239667 3.1656 0.279611
41201.00 1406.74 100.138996 44.6479 0.12982 3.97448 0.190735 0.569209 7.99689 0.12982 38.6762 0.239667 3.1656 0.279611
41101.00 1406.53 100.138996 44.6479 0.12982 3.97448 0.190735 0.569209 7.99689 0.12982 38.6762 0.239667 3.1656 0.279611
41001.00 1406.32 100.138996 44.6479 0.12982 3.97448 0.190735 0.569209 7.99689 0.12982 38.6762 0.239667 3.1656 0.279611
40901.00 1406.10 100.138996 44.6479 0.12982 3.97448 0.190735 0.569209 7.99689 0.12982 38.6762 0.239667 3.1656 0.279611
40801.00 1405.89 100.138996 44.6479 0.12982 3.97448 0.190735 0.569209 7.99689 0.12982 38.6762 0.239667 3.1656 0.279611
40701.00 1405.67 100.138996 44.6479 0.12982 3.97448 0.190735 0.569209 7.99689 0.12982 38.6762 0.239667 3.1656 0.279611
40601.00 1405.46 100.138996 44.6479 0.12982 3.97448 0.190735 0.569209 7.99689 0.12982 38.6762 0.239667 3.1656 0.279611
40501.00 1405.25 100.138996 44.6479 0.12982 3.97448 0.190735 0.569209 7.99689 0.12982 38.6762 0.239667 3.1656 0.279611
40401.00 1405.03 100.138996 44.6479 0.12982 3.97448 0.190735 0.569209 7.99689 0.12982 38.6762 0.239667 3.1656 0.279611
40301.00 1404.82 100.138996 44.6479 0.12982 3.97448 0.190735 0.569209 7.99689 0.12982 38.6762 0.239667 3.1656 0.279611
40201.00 1404.60 100.138996 44.6479 0.12982 3.97448 0.190735 0.569209 7.99689 0.12982 38.6762 0.239667 3.1656 0.279611
40101.00 1404.39 100.138996 44.6479 0.12982 3.97448 0.190735 0.569209 7.99689 0.12982 38.6762 0.239667 3.1656 0.279611
40001.00 1404.18 100.138996 44.6479 0.12982 3.97448 0.190735 0.569209 7.99689 0.12982 38.6762 0.239667 3.1656 0.279611
39901.00 1403.96 100.138996 44.6479 0.12982 3.97448 0.190735 0.569209 7.99689 0.12982 38.6762 0.239667 3.1656 0.279611
39801.00 1403.75 100.138996 44.6479 0.12982 3.97448 0.190735 0.569209 7.99689 0.12982 38.6762 0.239667 3.1656 0.279611
39701.00 1403.53 100.138996 44.6479 0.12982 3.97448 0.190735 0.569209 7.99689 0.12982 38.6762 0.239667 3.1656 0.279611
39601.00 1403.32 100.138996 44.6479 0.12982 3.97448 0.190735 0.569209 7.99689 0.12982 38.6762 0.239667 3.1656 0.279611
39501.00 1403.10 100.138996 44.6479 0.12982 3.97448 0.190735 0.569209 7.99689 0.12982 38.6762 0.239667 3.1656 0.279611
39401.00 1402.89 100.138996 44.6479 0.12982 3.97448 0.190735 0.569209 7.99689 0.12982 38.6762 0.239667 3.1656 0.279611
39301.00 1402.67 100.138996 44.6479 0.12982 3.97448 0.190735 0.569209 7.99689 0.12982 38.6762 0.239667 3.1656 0.279611
39201.00 1402.46 100.138996 44.6479 0.12982 3.97448 0.190735 0.569209 7.99689 0.12982 38.6762 0.239667 3.1656 0.279611
39101.00 1402.24 100.138996 44.6479 0.12982 3.97448 0.190735 0.569209 7.99689 0.12982 38.6762 0.239667 3.1656 0.279611
39001.00 1402.03 100.138996 44.6479 0.12982 3.97448 0.190735 0.569209 7.99689 0.12982 38.6762 0.239667 3.1656 0.279611
38901.00 1401.81 100.138996 44.6479 0.12982 3.97448 0.190735 0.569209 7.99689 0.12982 38.6762 0.239667 3.1656 0.279611
38801.00 1401.60 100.138996 44.6479 0.12982 3.97448 0.190735 0.569209 7.99689 0.12982 38.6762 0.239667 3.1656 0.279611
38701.00 1401.38 100.138996 44.6479 0.12982 3.97448 0.190735 0.569209 7.99689 0.12982 38.6762 0.239667 3.1656 0.279611
38601.00 1401.17 100.138996 44.6479 0.12982 3.97448 0.190735 0.569209 7.99689 0.12982 38.6762 0.239667 3.1656 0.279611
38501.00 1400.95 100.138996 44.6479 0.12982 3.97448 0.190735 0.569209 7.99689 0.12982 38.6762 0.239667 3.1656 0.279611
38401.00 1400.74 100.138996 44.6479 0.12982 3.97448 0.190735 0.569209 7.99689 0.12982 38.6762 0.239667 3.1656 0.279611
38301.00 1400.52 100.138996 44.6479 0.12982 3.97448 0.190735 0.569209 7.99689 0.12982 38.6762 0.239667 3.1656 0.279611
38201.00 1400.31 100.138996 44.6479 0.12982 3.97448 0.190735 0.569209 7.99689 0.12982 38.6762 0.239667 3.1656 0.279611
38101.00 1400.09 100.138996 44.6479 0.12982 3.97448 0.190735 0.569209 7.99689 0.12982 38.6762 0.239667 3.1656 0.279611
38001.00 1399.88 100.138996 44.6479 0.12982 3.97448 0.190735 0.569209 7.99689 0.12982 38.6762 0.239667 3.1656 0.279611
37901.00 1399.66 100.138996 44.6479 0.12982 3.97448 0.190735 0.569209 7.99689 0.12982 38.6762 0.239667 3.1656 0.279611
37801.00 1399.44 100.138996 44.6479 0.12982 3.97448 0.190735 0.569209 7.99689 0.12982 38.6762 0.239667 3.1656 0.279611
37701.00 1399.23 100.138996 44.6479 0.12982 3.97448 0.190735 0.569209 7.99689 0.12982 38.6762 0.239667 3.1656 0.279611
37601.00 1399.01 100.138996 44.6479 0.12982 3.97448 0.190735 0.569209 7.99689 0.12982 38.6762 0.239667 3.1656 0.279611
37501.00 1398.80 100.138996 44.6479 0.12982 3.97448 0.190735 0.569209 7.99689 0.12982 38.6762 0.239667 3.1656 0.279611
37401.00 1398.58 100.138996 44.6479 0.12982 3.97448 0.190735 0.569209 7.99689 0.12982 38.6762 0.239667 3.1656 0.279611
37301.00 1398.36 100.138996 44.6479 0.12982 3.97448 0.190735 0.569209 7.99689 0.12982 38.6762 0.239667 3.1656 0.279611
37201.00 1398.15 100.138996 44.6479 0.12982 3.97448 0.190735 0.569209 7.99689 0.12982 38.6762 0.239667 3.1656 0.279611
37101.00 1397.93 100.138996 44.6479 0.12982 3.97448 0.190735 0.569209 7.99689 0.12982 38.6762 0.239667 3.1656 0.279611
37001.00 1397.71 100.138996 44.6479 0.12982 3.97448 0.190735 0.569209 7.99689 0.12982 38.6762 0.239667 3.1656 0.279611
36901.00 1397.50 100.138996 44.6479 0.12982 3.97448 0.190735 0.569209 7.99689 0.12982 38.6762 0.239667 3.1656 0.279611
36801.00 1397.28 100.138996 44.6479 0.12982 3.97448 0.190735 0.569209 7.99689 0.12982 38.6762 0.239667 3.1656 0.279611
36701.00 1397.06 100.138996 44.6479 0.12982 3.97448 0.190735 0.569209 7.99689 0.12982 38.6762 0.239667 3.1656 0.279611
36601.00 1396.85 100.138996 44.6479 0.12982 3.97448 0.190735 0.569209 7.99689 0.12982 38.6762 0.239667 3.1656 0.279611
36501.00 1396.63 100.138996 44.6479 0.12982 3.97448 0.190735 0.569209 7.99689 0.12982 38.6762 0.239667 3.1656 0.279611
36401.00 1396.41 100.138996 44.6479 0.12982 3.97448 0.190735 0.569209 7.99689 0.12982 38.6762 0.239667 3.1656 0.279611
36301.00 1396.20 100.138996 44.6479 0.12982 3.97448 0.190735 0.569209 7.99689 0.12982 38.6762 0.239667 3.1656 0.279611
36201.00 1395.98 100.138996 44.6479 0.12982 3.97448 0.190735 0.569209 7.99689 0.12982 38.6762 0.239667 3.1656 0.279611
36101.00 1395.76 100.138996 44.6479 0.12982 3.97448 0.190735 0.569209 7.99689 0.12982 38.6762 0.239667 3.1656 0.279611
36001.00 1395.54 100.138996 44.6479 0.12982 3.97448 0.190735 0.569209 7.99689 0.12982 38.6762 0.239667 3.1656 0.279611
35901.00 1395.32 100.138996 44.6479 0.12982 3.97448 0.190735 0.569209 7.99689 0.12982 38.6762 0.239667 3.1656 0.279611
35801.00 1395.11 100.138996 44.6479 0.12982 3.97448 0.190735 0.569209 7.99689 0.12982 38.6762 0.239667 3.1656 0.279611
35701.00 1394.89 100.138996 44.6479 0.12982 3.97448 0.190735 0.569209 7.99689 0.12982 38.6762 0.239667 3.1656 0.279611
35601.00 1394.67 100.138996 44.6479 0.12982 3.97448 0.190735 0.569209 7.99689 0.12982 38.6762 0.239667 3.1656 0.279611
35501.00 1394.45 100.138996 44.6479 0.12982 3.97448 0.190735 0.569209 7.99689 0.12982 38.6762 0.239667 3.1656 0.279611
35401.00 1394.23 100.138996 44.6479 0.12982 3.97448 0.190735 0.569209 7.99689 0.12982 38.6762 0.239667 3.1656 0.279611
35301.00 1394.02 100.138996 44.6479 0.12982 3.97448 0.190735 0.569209 7.99689 0.12982 38.6762 0.239667 3.1656 0.279611
35201.00 1393.80 100.138996 44.6479 0.12982 3.97448 0.190735 0.569209 7.99689 0.12982 38.6762 0.239667 3.1656 0.279611
35101.00 1393.58 100.138996 44.6479 0.12982 3.97448 0.190735 0.569209 7.99689 0.12982 38.6762 0.239667 3.1656 0.279611
35001.00 1393.36 100.138996 44.6479 0.12982 3.97448 0.190735 0.569209 7.99689 0.12982 38.6762 0.239667 3.1656 0.279611
34901.00 1393.14 100.138996 44.6479 0.12982 3.97448 0.190735 0.569209 7.99689 0.12982 38.6762 0.239667 3.1656 0.279611
34801.00 1392.92 100.138996 44.6479 0.12982 3.97448 0.190735 0.569209 7.99689 0.12982 38.6762 0.239667 3.1656 0.279611
34701.00 1392.70 100.138996 44.6479 0.12982 3.97448 0.190735 0.569209 7.99689 0.12982 38.6762 0.239667 3.1656 0.279611
34601.00 1392.48 100.138996 44.6479 0.12982 3.97448 0.190735 0.569209 7.99689 0.12982 38.6762 0.239667 3.1656 0.279611
34501.00 1392.26 100.138996 44.6479 0.12982 3.97448 0.190735 0.569209 7.99689 0.12982 38.6762 0.239667 3.1656 0.279611
34401.00 1392.04 100.138996 44.6479 0.12982 3.97448 0.190735 0.569209 7.99689 0.12982 38.6762 0.239667 3.1656 0.279611
34301.00 1391.82 100.138996 44.6479 0.12982 3.97448 0.190735 0.569209 7.99689 0.12982 38.6762 0.239667 3.1656 0.279611
34201.00 1391.60 100.138996 44.6479 0.12982 3.97448 0.190735 0.569209 7.99689 0.12982 38.6762 0.239667 3.1656 0.279611
34101.00 1391.38 100.138996 44.6479 0.12982 3.97448 0.190735 0.569209 7.99689 0.12982 38.6762 0.239667 3.1656 0.279611
34001.00 1391.16 100.138996 44.6479 0.12982 3.97448 0.190735 0.569209 7.99689 0.12982 38.6762 0.239667 3.1656 0.279611
33901.00 1390.94 100.138996 44.6479 0.12982 3.97448 0.190735 0.569209 7.99689 0.12982 38.6762 0.239667 3.1656 0.279611
33801.00 1390.72 100.138996 44.6479 0.12982 3.97448 0.190735 0.569209 7.99689 0.12982 38.6762 0.239667 3.1656 0.279611
33701.00 1390.50 100.138996 44.6479 0.12982 3.97448 0.190735 0.569209 7.99689 0.12982 38.6762 0.239667 3.1656 0.279611
33601.00 1390.28 100.138996 44.6479 0.12982 3.97448 0.190735 0.569209 7.99689 0.12982 38.6762 0.239667 3.1656 0.279611
33501.00 1390.06 100.138996 44.6479 0.12982 3.97448 0.190735 0.569209 7.99689 0.12982 38.6762 0.239667 3.1656 0.279611
33401.00 1389.84 100.138996 44.6479 0.12982 3.97448 0.190735 0.569209 7.99689 0.12982 38.6762 0.239667 3.1656 0.279611
33301.00 1389.62 100.138996 44.6479 0.12982 3.97448 0.190735 0.569209 7.99689 0.12982 38.6762 0.239667 3.1656 0.279611
33201.00 1389.40 100.138996 44.6479 0.12982 3.97448 0.190735 0.569209 7.99689 0.12982 38.6762 0.239667 3.1656 0.279611
33101.00 1389.18 100.138996 44.6479 0.12982 3.97448 0.190735 0.569209 7.99689 0.12982 38.6762 0.239667 3.1656 0.279611
33001.00 1388.95 100.138996 44.6479 0.12982 3.97448 0.190735 0.569209 7.99689 0.12982 38.6762 0.239667 3.1656 0.279611
32901.00 1388.73 100.138996 44.6479 0.12982 3.97448 0.190735 0.569209 7.99689 0.12982 38.6762 0.239667 3.1656 0.279611
32801.00 1388.51 100.138996 44.6479 0.12982 3.97448 0.190735 0.569209 7.99689 0.12982 38.6762 0.239667 3.1656 0.279611
32701.00 1388.29 100.138996 44.6479 0.12982 3.97448 0.190735 0.569209 7.99689 0.12982 38.6762 0.239667 3.1656 0.279611
32601.00 1388.06 100.138996 44.6479 0.12982 3.97448 0.190735 0.569209 7.99689 0.12982 38.6762 0.239667 3.1656 0.279611
32501.00 1387.84 100.138996 44.6479 0.12982 3.97448 0.190735 0.569209 7.99689 0.12982 38.6762 0.239667 3.1656 0.279611
32401.00 1387.62 100.138996 44.6479 0.12982 3.97448 0.190735 0.569209 7.99689 0.12982 38.6762 0.239667 3.1656 0.279611
32301.00 1387.39 100.138996 44.6479 0.12982 3.97448 0.190735 0.569209 7.99689 0.12982 38.6762 0.239667 3.1656 0.279611
32201.00 1387.17 100.138996 44.6479 0.12982 3.97448 0.190735 0.569209 7.99689 0.12982 38.6762 0.239667 3.1656 0.279611
32101.00 1386.95 100.138996 44.6479 0.12982 3.97448 0.190735 0.569209 7.99689 0.12982 38.6762 0.239667 3.1656 0.279611
32001.00 1386.72 100.138996 44.6479 0.12982 3.97448 0.190735 0.569209 7.99689 0.12982 38.6762 0.239667 3.1656 0.279611
31901.00 1386.50 100.138996 44.6479 0.12982 3.97448 0.190735 0.569209 7.99689 0.12982 38.6762 0.239667 3.1656 0.279611
31801.00 1386.28 100.138996 44.6479 0.12982 3.97448 0.190735 0.569209 7.99689 0.12982 38.6762 0.239667 3.1656 0.279611
31701.00 1386.05 100.138996 44.6479 0.12982 3.97448 0.190735 0.569209 7.99689 0.12982 38.6762 0.239667 3.1656 0.279611
31601.00 1385.83 100.138996 44.6479 0.12982 3.97448 0.190735 0.569209 7.99689 0.12982 38.6762 0.239667 3.1656 0.279611
31501.00 1385.60 100.138996 44.6479 0.12982 3.97448 0.190735 0.569209 7.99689 0.12982 38.6762 0.239667 3.1656 0.279611
31401.00 1385.38 100.138996 44.6479 0.12982 3.97448 0.190735 0.569209 7.99689 0.12982 38.6762 0.239667 3.1656 0.279611
31301.00 1385.15 100.138996 44.6479 0.12982 3.97448 0.190735 0.569209 7.99689 0.12982 38.6762 0.239667 3.1656 0.279611
31201.00 1384.93 100.138996 44.6479 0.12982 3.97448 0.190735 0.569209 7.99689 0.12982 38.6762 0.239667 3.1656 0.279611
31101.00 1384.70 100.138996 44.6479 0.12982 3.97448 0.190735 0.569209 7.99689 0.12982 38.6762 0.239667 3.1656 0.279611
31001.00 1384.47 100.138996 44.6479 0.12982 3.97448 0.190735 0.569209 7.99689 0.12982 38.6762 0.239667 3.1656 0.279611
30901.00 1384.25 100.138996 44.6479 0.12982 3.97448 0.190735 0.569209 7.99689 0.12982 38.6762 0.239667 3.1656 0.279611
30801.00 1384.02 100.138996 44.6479 0.12982 3.97448 0.190735 0.569209 7.99689 0.12982 38.6762 0.239667 3.1656 0.279611
30701.00 1383.79 100.138996 44.6479 0.12982 3.97448 0.190735 0.569209 7.99689 0.12982 38.6762 0.239667 3.1656 0.279611
30601.00 1383.57 100.138996 44.6479 0.12982 3.97448 0.190735 0.569209 7.99689 0.12982 38.6762 0.239667 3.1656 0.279611
30501.00 1383.34 100.138996 44.6479 0.12982 3.97448 0.190735 0.569209 7.99689 0.12982 38.6762 0.239667 3.1656 0.279611
30401.00 1383.11 100.138996 44.6479 0.12982 3.97448 0.190735 0.569209 7.99689 0.12982 38.6762 0.239667 3.1656 0.279611
30301.00 1382.88 100.138996 44.6479 0.12982 3.97448 0.190735 0.569209 7.99689 0.12982 38.6762 0.239667 3.1656 0.279611
30201.00 1382.66 100.138996 44.6479 0.12982 3.97448 0.190735 0.569209 7.99689 0.12982 38.6762 0.239667 3.1656 0.279611
30101.00 1382.43 100.138996 44.6479 0.12982 3.97448 0.190735 0.569209 7.99689 0.12982 38.6762 0.239667 3.1656 0.279611
30001.00 1382.20 100.138996 44.6479 0.12982 3.97448 0.190735 0.569209 7.99689 0.12982 38.6762 0.239667 3.1656 0.279611
29901.00 1381.97 100.138996 44.6479 0.12982 3.97448 0.190735 0.569209 7.99689 0.12982 38.6762 0.239667 3.1656 0.279611
29801.00 1381.74 100.138996 44.6479 0.12982 3.97448 0.190735 0.569209 7.99689 0.12982 38.6762 0.239667 3.1656 0.279611
29701.00 1381.51 100.138996 44.6479 0.12982 3.97448 0.190735 0.569209 7.99689 0.12982 38.6762 0.239667 3.1656 0.279611
29601.00 1381.28 100.138996 44.6479 0.12982 3.97448 0.190735 0.569209 7.99689 0.12982 38.6762 0.239667 3.1656 0.279611
29501.00 1381.05 100.138996 44.6479 0.12982 3.97448 0.190735 0.569209 7.99689 0.12982 38.6762 0.239667 3.1656 0.279611
29401.00 1380.82 100.138996 44.6479 0.12982 3.97448 0.190735 0.569209 7.99689 0.12982 38.6762 0.239667 3.1656 0.279611
29301.00 1380.59 100.138996 44.6479 0.12982 3.97448 0.190735 0.569209 7.99689 0.12982 38.6762 0.239667 3.1656 0.279611
29201.00 1380.36 100.138996 44.6479 0.12982 3.97448 0.190735 0.569209 7.99689 0.12982 38.6762 0.239667 3.1656 0.279611
29101.00 1380.13 100.138996 44.6479 0.12982 3.97448 0.190735 0.569209 7.99689 0.12982 38.6762 0.239667 3.1656 0.279611
29001.00 1379.89 100.138996 44.6479 0.12982 3.97448 0.190735 0.569209 7.99689 0.12982 38.6762 0.239667 3.1656 0.279611
28901.00 1379.66 100.138996 44.6479 0.12982 3.97448 0.190735 0.569209 7.99689 0.12982 38.6762 0.239667 3.1656 0.279611
28801.00 1379.43 100.138996 44.6479 0.12982 3.97448 0.190735 0.569209 7.99689 0.12982 38.6762 0.239667 3.1656 0.279611
28701.00 1379.20 100.138996 44.6479 0.12982 3.97448 0.190735 0.569209 7.99689 0.12982 38.6762 0.239667 3.1656 0.279611
28601.00 1378.96 100.138996 44.6479 0.12982 3.97448 0.190735 0.569209 7.99689 0.12982 38.6762 0.239667 3.1656 0.279611
28501.00 1378.73 100.138996 44.6479 0.12982 3.97448 0.190735 0.569209 7.99689 0.12982 38.6762 0.239667 3.1656 0.279611
28401.00 1378.50 100.138996 44.6479 0.12982 3.97448 0.190735 0.569209 7.99689 0.12982 38.6762 0.239667 3.1656 0.279611
28301.00 1378.26 100.138996 44.6479 0.12982 3.97448 0.190735 0.569209 7.99689 0.12982 38.6762 0.239667 3.1656 0.279611
28201.00 1378.03 100.138996 44.6479 0.12982 3.97448 0.190735 0.569209 7.99689 0.12982 38.6762 0.239667 3.1656 0.279611
28101.00 1377.79 100.138996 44.6479 0.12982 3.97448 0.190735 0.569209 7.99689 0.12982 38.6762 0.239667 3.1656 0.279611
28001.00 1377.56 100.138996 44.6479 0.12982 3.97448 0.190735 0.569209 7.99689 0.12982 38.6762 0.239667 3.1656 0.279611
27901.00 1377.32 100.138996 44.6479 0.12982 3.97448 0.190735 0.569209 7.99689 0.12982 38.6762 0.239667 3.1656 0.279611
27801.00 1377.08 100.138996 44.6479 0.12982 3.97448 0.190735 0.569209 7.99689 0.12982 38.6762 0.239667 3.1656 0.279611
27701.00 1376.85 100.138996 44.6479 0.12982 3.97448 0.190735 0.569209 7.99689 0.12982 38.6762 0.239667 3.1656 0.279611
27601.00 1376.61 100.138996 44.6479 0.12982 3.97448 0.190735 0.569209 7.99689 0.12982 38.6762 0.239667 3.1656 0.279611
