Title: Depleted MORB Mantle of Workmann & Hart 2005

Liquid Composition:
Pressure Temperature mass SiO2 TiO2 Al2O3 Fe2O3 Cr2O3 FeO MnO MgO NiO CaO Na2O 
44001.00 1412.71 0.000000 ---
43901.00 1412.50 0.000000 ---
43801.00 1412.28 0.000000 ---
43701.00 1412.07 0.000000 ---
43601.00 1411.86 0.000000 ---
43501.00 1411.64 0.000000 ---
43401.00 1411.43 0.000000 ---
43301.00 1411.22 0.000000 ---
43201.00 1411.01 0.000000 ---
43101.00 1410.79 0.000000 ---
43001.00 1410.58 0.000000 ---
42901.00 1410.37 0.000000 ---
42801.00 1410.16 0.000000 ---
42701.00 1409.94 0.000000 ---
42601.00 1409.73 0.000000 ---
42501.00 1409.52 0.000000 ---
42401.00 1409.30 0.000000 ---
42301.00 1409.09 0.000000 ---
42201.00 1408.88 0.000000 ---
42101.00 1408.66 0.000000 ---
42001.00 1408.45 0.000000 ---
41901.00 1408.24 0.000000 ---
41801.00 1408.02 0.000000 ---
41701.00 1407.81 0.000000 ---
41601.00 1407.60 0.000000 ---
41501.00 1407.38 0.000000 ---
41401.00 1407.17 0.000000 ---
41301.00 1406.96 0.000000 ---
41201.00 1406.74 0.000000 ---
41101.00 1406.53 0.000000 ---
41001.00 1406.32 0.000000 ---
40901.00 1406.10 0.000000 ---
40801.00 1405.89 0.000000 ---
40701.00 1405.67 0.000000 ---
40601.00 1405.46 0.000000 ---
40501.00 1405.25 0.000000 ---
40401.00 1405.03 0.000000 ---
40301.00 1404.82 0.000000 ---
40201.00 1404.60 0.000000 ---
40101.00 1404.39 0.000000 ---
40001.00 1404.18 0.000000 ---
39901.00 1403.96 0.000000 ---
39801.00 1403.75 0.000000 ---
39701.00 1403.53 0.000000 ---
39601.00 1403.32 0.000000 ---
39501.00 1403.10 0.000000 ---
39401.00 1402.89 0.000000 ---
39301.00 1402.67 0.000000 ---
39201.00 1402.46 0.000000 ---
39101.00 1402.24 0.000000 ---
39001.00 1402.03 0.000000 ---
38901.00 1401.81 0.000000 ---
38801.00 1401.60 0.000000 ---
38701.00 1401.38 0.000000 ---
38601.00 1401.17 0.000000 ---
38501.00 1400.95 0.000000 ---
38401.00 1400.74 0.000000 ---
38301.00 1400.52 0.000000 ---
38201.00 1400.31 0.000000 ---
38101.00 1400.09 0.000000 ---
38001.00 1399.88 0.000000 ---
37901.00 1399.66 0.000000 ---
37801.00 1399.44 0.000000 ---
37701.00 1399.23 0.000000 ---
37601.00 1399.01 0.000000 ---
37501.00 1398.80 0.000000 ---
37401.00 1398.58 0.000000 ---
37301.00 1398.36 0.000000 ---
37201.00 1398.15 0.000000 ---
37101.00 1397.93 0.000000 ---
37001.00 1397.71 0.000000 ---
36901.00 1397.50 0.000000 ---
36801.00 1397.28 0.000000 ---
36701.00 1397.06 0.000000 ---
36601.00 1396.85 0.000000 ---
36501.00 1396.63 0.000000 ---
36401.00 1396.41 0.000000 ---
36301.00 1396.20 0.000000 ---
36201.00 1395.98 0.000000 ---
36101.00 1395.76 0.000000 ---
36001.00 1395.54 0.000000 ---
35901.00 1395.32 0.000000 ---
35801.00 1395.11 0.000000 ---
35701.00 1394.89 0.000000 ---
35601.00 1394.67 0.000000 ---
35501.00 1394.45 0.000000 ---
35401.00 1394.23 0.000000 ---
35301.00 1394.02 0.000000 ---
35201.00 1393.80 0.000000 ---
35101.00 1393.58 0.000000 ---
35001.00 1393.36 0.000000 ---
34901.00 1393.14 0.000000 ---
34801.00 1392.92 0.000000 ---
34701.00 1392.70 0.000000 ---
34601.00 1392.48 0.000000 ---
34501.00 1392.26 0.000000 ---
34401.00 1392.04 0.000000 ---
34301.00 1391.82 0.000000 ---
34201.00 1391.60 0.000000 ---
34101.00 1391.38 0.000000 ---
34001.00 1391.16 0.000000 ---
33901.00 1390.94 0.000000 ---
33801.00 1390.72 0.000000 ---
33701.00 1390.50 0.000000 ---
33601.00 1390.28 0.000000 ---
33501.00 1390.06 0.000000 ---
33401.00 1389.84 0.000000 ---
33301.00 1389.62 0.000000 ---
33201.00 1389.40 0.000000 ---
33101.00 1389.18 0.000000 ---
33001.00 1388.95 0.000000 ---
32901.00 1388.73 0.000000 ---
32801.00 1388.51 0.000000 ---
32701.00 1388.29 0.000000 ---
32601.00 1388.06 0.000000 ---
32501.00 1387.84 0.000000 ---
32401.00 1387.62 0.000000 ---
32301.00 1387.39 0.000000 ---
32201.00 1387.17 0.000000 ---
32101.00 1386.95 0.000000 ---
32001.00 1386.72 0.000000 ---
31901.00 1386.50 0.000000 ---
31801.00 1386.28 0.000000 ---
31701.00 1386.05 0.000000 ---
31601.00 1385.83 0.000000 ---
31501.00 1385.60 0.000000 ---
31401.00 1385.38 0.000000 ---
31301.00 1385.15 0.000000 ---
31201.00 1384.93 0.000000 ---
31101.00 1384.70 0.000000 ---
31001.00 1384.47 0.000000 ---
30901.00 1384.25 0.000000 ---
30801.00 1384.02 0.000000 ---
30701.00 1383.79 0.000000 ---
30601.00 1383.57 0.000000 ---
30501.00 1383.34 0.000000 ---
30401.00 1383.11 0.000000 ---
30301.00 1382.88 0.000000 ---
30201.00 1382.66 0.000000 ---
30101.00 1382.43 0.000000 ---
30001.00 1382.20 0.000000 ---
29901.00 1381.97 0.000000 ---
29801.00 1381.74 0.000000 ---
29701.00 1381.51 0.000000 ---
29601.00 1381.28 0.000000 ---
29501.00 1381.05 0.000000 ---
29401.00 1380.82 0.000000 ---
29301.00 1380.59 0.000000 ---
29201.00 1380.36 0.000000 ---
29101.00 1380.13 0.000000 ---
29001.00 1379.89 0.000000 ---
28901.00 1379.66 0.000000 ---
28801.00 1379.43 0.000000 ---
28701.00 1379.20 0.000000 ---
28601.00 1378.96 0.000000 ---
28501.00 1378.73 0.000000 ---
28401.00 1378.50 0.000000 ---
28301.00 1378.26 0.000000 ---
28201.00 1378.03 0.000000 ---
28101.00 1377.79 0.000000 ---
28001.00 1377.56 0.000000 ---
27901.00 1377.32 0.000000 ---
27801.00 1377.08 0.000000 ---
27701.00 1376.85 0.000000 ---
27601.00 1376.61 0.000000 ---
27501.00 1376.37 0.000000 ---
27401.00 1376.13 0.000000 ---
27301.00 1375.89 0.000000 ---
27201.00 1375.65 0.000000 ---
27101.00 1375.41 0.000000 ---
27001.00 1375.17 0.000000 ---
26901.00 1374.93 0.000000 ---
26801.00 1374.69 0.000000 ---
26701.00 1374.45 0.000000 ---
26601.00 1374.21 0.000000 ---
26501.00 1373.96 0.000000 ---
26401.00 1373.72 0.000000 ---
26301.00 1373.47 0.000000 ---
26201.00 1373.23 0.000000 ---
26101.00 1372.98 0.000000 ---
26001.00 1372.74 0.000000 ---
25901.00 1372.49 0.000000 ---
25801.00 1372.24 0.000000 ---
25701.00 1371.99 0.000000 ---
25601.00 1371.75 0.000000 ---
25501.00 1371.50 0.000000 ---
25401.00 1371.25 0.000000 ---
25301.00 1370.99 0.000000 ---
25201.00 1370.74 0.000000 ---
25101.00 1370.49 0.000000 ---
25001.00 1370.24 0.000000 ---
24901.00 1369.98 0.000000 ---
24801.00 1369.73 0.000000 ---
24701.00 1369.47 0.000000 ---
24601.00 1369.22 0.000000 ---
24501.00 1368.96 0.000000 ---
24401.00 1368.70 0.000000 ---
24301.00 1368.44 0.000000 ---
24201.00 1368.18 0.000000 ---
24101.00 1367.92 0.000000 ---
24001.00 1367.65 0.000000 ---
23901.00 1367.39 0.000000 ---
23801.00 1367.13 0.000000 ---
23701.00 1366.86 0.000000 ---
23601.00 1366.59 0.000000 ---
23501.00 1366.33 0.000000 ---
23401.00 1366.06 0.000000 ---
23301.00 1365.79 0.000000 ---
23201.00 1365.51 0.000000 ---
23101.00 1365.24 0.000000 ---
23001.00 1364.97 0.000000 ---
22901.00 1364.69 0.000000 ---
22801.00 1364.41 0.000000 ---
22701.00 1364.13 0.000000 ---
22601.00 1363.85 0.000000 ---
22501.00 1363.57 0.000000 ---
22401.00 1363.29 0.000000 ---
22301.00 1363.00 0.000000 ---
22201.00 1362.71 0.000000 ---
22101.00 1362.42 0.000000 ---
22001.00 1362.13 0.000000 ---
21901.00 1361.84 0.000000 ---
21801.00 1361.54 0.000000 ---
21701.00 1361.25 0.000000 ---
21601.00 1360.95 0.000000 ---
21501.00 1360.65 0.000000 ---
21401.00 1360.34 0.000000 ---
21301.00 1360.03 0.000000 ---
21201.00 1359.73 0.000000 ---
21101.00 1359.41 0.000000 ---
21001.00 1359.10 0.000000 ---
20901.00 1358.78 0.000000 ---
20801.00 1358.46 0.000000 ---
20701.00 1358.14 0.000000 ---
20601.00 1357.81 0.000000 ---
20501.00 1357.48 0.000000 ---
20401.00 1357.15 0.000000 ---
20301.00 1356.94 0.000000 ---
20201.00 1356.74 0.000000 ---
20101.00 1356.54 0.000000 ---
20001.00 1356.34 0.000000 ---
19901.00 1356.14 0.000000 ---
19801.00 1355.94 0.000000 ---
19701.00 1355.74 0.000000 ---
19601.00 1355.54 0.000000 ---
19501.00 1355.34 0.000000 ---
19401.00 1355.15 0.000000 ---
19301.00 1354.95 0.000000 ---
19201.00 1354.75 0.000000 ---
19101.00 1354.55 0.000000 ---
19001.00 1354.35 0.000000 ---
18901.00 1354.15 0.000000 ---
18801.00 1353.95 0.000000 ---
18701.00 1353.75 0.000000 ---
18601.00 1353.55 0.000000 ---
18501.00 1353.35 0.000000 ---
18401.00 1353.15 0.000000 ---
18301.00 1352.95 0.000000 ---
18201.00 1352.75 0.000000 ---
18101.00 1352.54 0.000000 ---
18001.00 1352.34 0.000000 ---
17901.00 1352.14 0.000000 ---
17801.00 1351.94 0.000000 ---
17701.00 1351.74 0.000000 ---
17601.00 1351.54 0.000000 ---
17501.00 1351.34 0.000000 ---
17401.00 1351.14 0.000000 ---
17301.00 1350.94 0.000000 ---
17201.00 1350.74 0.000000 ---
17101.00 1350.54 0.000000 ---
17001.00 1350.34 0.000000 ---
16901.00 1350.14 0.000000 ---
16801.00 1349.94 0.000000 ---
16701.00 1349.73 0.000000 ---
16601.00 1349.53 0.000000 ---
16501.00 1349.33 0.000000 ---
16401.00 1349.03 0.023934 48.522 0.789895 16.689 0.131266 0.291741 6.63176 0.0258913 11.6077 0.0150055 5.10497 10.1907
16301.00 1348.69 0.059058 48.5702 0.789039 16.7045 0.132767 0.288232 6.61975 0.0256095 11.6009 0.0148372 5.15355 10.1006
16201.00 1348.34 0.094735 48.6182 0.788203 16.7197 0.134299 0.284736 6.60788 0.0253292 11.5942 0.0146699 5.20272 10.0101
16101.00 1348.00 0.130985 48.6659 0.787386 16.7347 0.135864 0.281254 6.59618 0.0250502 11.5876 0.0145034 5.2525 9.9191
16001.00 1347.65 0.167826 48.7132 0.786589 16.7494 0.137462 0.277786 6.58462 0.0247727 11.5812 0.0143379 5.3029 9.82771
15901.00 1347.30 0.205280 48.7602 0.785812 16.7639 0.139094 0.274333 6.57323 0.0244967 11.575 0.0141733 5.35392 9.73589
15801.00 1346.94 0.243367 48.8069 0.785054 16.778 0.140761 0.270894 6.56199 0.0242221 11.5689 0.0140096 5.40558 9.64365
15701.00 1346.59 0.282110 48.8533 0.784315 16.7919 0.142463 0.267472 6.55091 0.023949 11.5629 0.0138469 5.45787 9.551
15601.00 1346.23 0.321531 48.8993 0.783596 16.8056 0.144202 0.264065 6.53999 0.0236773 11.5572 0.0136851 5.5108 9.45794
15501.00 1345.88 0.361654 48.9449 0.782897 16.8189 0.145979 0.260674 6.52923 0.0234071 11.5515 0.0135242 5.56439 9.36448
15401.00 1345.52 0.402504 48.9902 0.782216 16.832 0.147795 0.2573 6.51862 0.0231384 11.5461 0.0133642 5.61864 9.27062
15301.00 1345.15 0.444108 49.0351 0.781555 16.8448 0.14965 0.253944 6.50817 0.0228712 11.5407 0.0132053 5.67355 9.17636
15201.00 1344.79 0.486493 49.0797 0.780913 16.8574 0.151546 0.250605 6.49788 0.0226054 11.5355 0.0130472 5.72913 9.08171
15101.00 1344.42 0.529687 49.1238 0.780289 16.8696 0.153484 0.247284 6.48775 0.0223412 11.5305 0.0128901 5.78539 8.98668
15001.00 1344.05 0.573719 49.1675 0.779683 16.8815 0.155465 0.243982 6.47778 0.0220784 11.5256 0.0127339 5.84234 8.89127
14901.00 1343.68 0.618622 49.2109 0.779096 16.8932 0.157489 0.240699 6.46796 0.0218171 11.5208 0.0125787 5.89998 8.79549
14801.00 1343.31 0.664425 49.2538 0.778526 16.9046 0.159558 0.237436 6.45829 0.0215574 11.5162 0.0124244 5.95831 8.69935
14701.00 1342.93 0.711165 49.2963 0.777973 16.9157 0.161674 0.234193 6.44878 0.0212991 11.5117 0.0122711 6.01735 8.60285
14601.00 1342.55 0.758875 49.3383 0.777438 16.9265 0.163837 0.230971 6.43941 0.0210424 11.5073 0.0121188 6.07709 8.50601
14501.00 1342.17 0.807593 49.3799 0.776918 16.937 0.166048 0.227769 6.4302 0.0207872 11.5031 0.0119674 6.13754 8.40883
14401.00 1341.78 0.857356 49.4211 0.776415 16.9472 0.168309 0.22459 6.42113 0.0205335 11.4989 0.0118169 6.19871 8.31132
14301.00 1341.40 0.908206 49.4618 0.775926 16.9571 0.17062 0.221432 6.41221 0.0202813 11.4949 0.0116674 6.2606 8.21349
14201.00 1341.00 0.960183 49.5021 0.775452 16.9667 0.172983 0.218298 6.40343 0.0200306 11.491 0.0115189 6.32322 8.11536
14101.00 1340.61 1.013331 49.5419 0.774992 16.976 0.1754 0.215186 6.39479 0.0197815 11.4872 0.0113713 6.38656 8.01693
14001.00 1340.21 1.055487 49.5812 0.774549 16.9849 0.177871 0.212096 6.38631 0.019534 11.4834 0.0112247 6.45065 7.91817
13901.00 1339.81 1.055524 49.6199 0.774132 16.9936 0.180402 0.209017 6.37807 0.019288 11.48 0.0110791 6.51562 7.81892
13801.00 1339.41 1.055571 49.6579 0.773744 17.002 0.182994 0.20595 6.37008 0.0190435 11.4767 0.0109345 6.58147 7.71919
13701.00 1339.00 1.055629 49.6953 0.773383 17.01 0.185649 0.202896 6.36234 0.0188006 11.4736 0.0107908 6.64822 7.61897
13601.00 1338.60 1.055698 49.732 0.773051 17.0177 0.188369 0.199854 6.35485 0.0185593 11.4708 0.0106482 6.71587 7.51827
13501.00 1338.19 1.055780 49.7681 0.772747 17.0251 0.191155 0.196825 6.34761 0.0183195 11.4681 0.0105065 6.78444 7.4171
13401.00 1337.78 1.055874 49.8034 0.772471 17.0321 0.194009 0.193809 6.34063 0.0180813 11.4657 0.0103658 6.85394 7.31545
13301.00 1337.37 1.055982 49.838 0.772224 17.0388 0.196934 0.190808 6.33391 0.0178446 11.4634 0.0102261 6.92439 7.21334
13201.00 1336.96 1.056103 49.8719 0.772006 17.0452 0.199931 0.187821 6.32744 0.0176095 11.4614 0.0100874 6.99578 7.11077
13101.00 1336.54 1.056239 49.9051 0.771816 17.0512 0.203003 0.184849 6.32124 0.017376 11.4595 0.00994967 7.06814 7.00775
13001.00 1336.13 1.056389 49.9375 0.771655 17.0569 0.206151 0.181893 6.31529 0.017144 11.4579 0.00981293 7.14147 6.90427
12901.00 1335.71 1.056556 49.9691 0.771523 17.0623 0.209377 0.178952 6.3096 0.0169136 11.4564 0.00967718 7.21579 6.80036
12801.00 1335.28 1.056740 50 0.771419 17.0672 0.212684 0.176028 6.30417 0.0166848 11.4551 0.00954242 7.2911 6.69601
12701.00 1334.86 1.056941 50.03 0.771344 17.0719 0.216074 0.173121 6.299 0.0164575 11.454 0.00940865 7.36742 6.59123
12601.00 1334.43 1.057160 50.0593 0.771297 17.0762 0.219549 0.170231 6.29409 0.0162319 11.4531 0.00927587 7.44474 6.48604
12501.00 1334.00 1.057399 50.0877 0.771278 17.0801 0.223111 0.167359 6.28944 0.0160078 11.4523 0.00914407 7.52309 6.38045
12401.00 1333.57 1.057657 50.1153 0.771286 17.0837 0.226762 0.164505 6.28505 0.0157853 11.4517 0.00901326 7.60247 6.27446
12301.00 1333.13 1.057937 50.1421 0.771321 17.0869 0.230505 0.161671 6.28091 0.0155643 11.4512 0.00888343 7.68288 6.16809
12201.00 1332.70 1.058240 50.168 0.771383 17.0897 0.234342 0.158855 6.27702 0.015345 11.4509 0.0087546 7.76434 6.06135
12101.00 1332.26 1.058565 50.1931 0.771471 17.0922 0.238276 0.15606 6.27339 0.0151272 11.4506 0.00862675 7.84684 5.95424
12001.00 1331.81 1.058915 50.2173 0.771585 17.0943 0.242308 0.153286 6.27 0.014911 11.4506 0.00849989 7.9304 5.8468
11901.00 1331.36 1.059291 50.2407 0.771722 17.0961 0.24644 0.150533 6.26685 0.0146964 11.4506 0.00837402 8.01501 5.73903
11801.00 1330.91 1.059694 50.2632 0.771884 17.0975 0.250676 0.147802 6.26395 0.0144834 11.4507 0.00824914 8.10069 5.63095
11701.00 1330.46 1.060125 50.2848 0.772067 17.0985 0.255017 0.145093 6.26128 0.014272 11.4509 0.00812524 8.18742 5.52258
11601.00 1330.00 1.060587 50.3055 0.772272 17.0992 0.259466 0.142407 6.25884 0.0140621 11.4511 0.00800234 8.27522 5.41393
11501.00 1329.54 1.061079 50.3253 0.772497 17.0995 0.264024 0.139745 6.25662 0.0138539 11.4515 0.00788042 8.36408 5.30503
11401.00 1329.08 1.061605 50.3443 0.772739 17.0994 0.268694 0.137108 6.25461 0.0136473 11.4518 0.0077595 8.454 5.1959
11301.00 1328.61 1.062166 50.3624 0.772999 17.099 0.273477 0.134495 6.25281 0.0134423 11.4522 0.00763957 8.54497 5.08655
11201.00 1328.13 1.062763 50.3796 0.773273 17.0983 0.278377 0.131908 6.25121 0.0132389 11.4526 0.00752063 8.637 4.97702
11101.00 1327.66 1.063400 50.396 0.77356 17.0971 0.283393 0.129347 6.2498 0.0130371 11.4529 0.00740269 8.73007 4.86734
11001.00 1327.17 1.064076 50.4115 0.773857 17.0956 0.288529 0.126814 6.24857 0.0128369 11.4533 0.00728574 8.82417 4.75752
10901.00 1326.69 1.064796 50.4262 0.774162 17.0938 0.293786 0.124308 6.2475 0.0126384 11.4536 0.00716979 8.9193 4.64759
10801.00 1326.19 1.065561 50.44 0.774471 17.0916 0.299165 0.121831 6.24658 0.0124414 11.4538 0.00705484 9.01545 4.53759
10701.00 1325.70 1.066373 50.4531 0.774783 17.0891 0.304667 0.119383 6.2458 0.0122461 11.4539 0.00694089 9.11259 4.42755
10601.00 1325.20 1.067236 50.4653 0.775093 17.0862 0.310293 0.116965 6.24514 0.0120525 11.4539 0.00682795 9.21071 4.31751
10501.00 1324.69 1.068152 50.4768 0.775398 17.083 0.316044 0.114578 6.24459 0.0118605 11.4538 0.00671602 9.30978 4.20749
10401.00 1324.18 1.069124 50.4875 0.775694 17.0795 0.321921 0.112222 6.24413 0.0116702 11.4534 0.00660509 9.4098 4.09753
10301.00 1323.66 1.070155 50.4975 0.775976 17.0756 0.327924 0.109899 6.24373 0.0114815 11.4529 0.00649519 9.51073 3.98768
10201.00 1323.13 1.071248 50.5069 0.77624 17.0715 0.334053 0.107608 6.24338 0.0112945 11.4522 0.0063863 9.61255 3.87798
10101.00 1322.60 1.072407 50.5156 0.776481 17.067 0.340307 0.105352 6.24306 0.0111092 11.4512 0.00627843 9.71522 3.76846
10001.00 1322.06 1.073636 50.5237 0.776693 17.0622 0.346685 0.10313 6.24273 0.0109256 11.4499 0.0061716 9.81871 3.65918
9901.00 1321.52 1.074938 50.5312 0.77687 17.0571 0.353187 0.100944 6.24239 0.0107437 11.4483 0.0060658 9.92299 3.55018
9801.00 1320.96 1.076318 50.5383 0.777005 17.0518 0.35981 0.0987938 6.24199 0.0105635 11.4463 0.00596103 10.028 3.44151
9701.00 1320.40 1.077780 50.5448 0.777093 17.0462 0.366553 0.096681 6.2415 0.010385 11.444 0.00585732 10.1337 3.33321
9601.00 1319.83 1.079330 50.551 0.777125 17.0403 0.373412 0.0946063 6.24091 0.0102083 11.4412 0.00575465 10.2401 3.22536
9501.00 1319.26 1.080971 50.5569 0.777093 17.0342 0.380385 0.0925704 6.24017 0.0100333 11.438 0.00565305 10.3471 3.11799
9401.00 1318.67 1.082709 50.5624 0.776989 17.0279 0.387468 0.0905744 6.23925 0.00986018 11.4343 0.00555251 10.4546 3.01116
9301.00 1318.08 1.084551 50.5678 0.776803 17.0213 0.394657 0.0886189 6.23812 0.0096888 11.4301 0.00545304 10.5625 2.90495
9201.00 1317.47 1.086501 50.5731 0.776525 17.0145 0.401945 0.086705 6.23673 0.00951924 11.4253 0.00535467 10.6709 2.7994
9101.00 1316.86 1.088567 50.5784 0.776145 17.0075 0.409329 0.0848335 6.23505 0.00935152 11.4199 0.00525738 10.7797 2.69459
9001.00 1316.23 1.090755 50.5837 0.775652 17.0003 0.4168 0.0830053 6.23302 0.00918564 11.4138 0.0051612 10.8887 2.59058
8901.00 1315.59 1.093071 50.5893 0.775033 16.993 0.424351 0.0812213 6.23062 0.00902164 11.4071 0.00506613 10.9979 2.48744
8801.00 1314.95 1.095524 50.5951 0.774276 16.9855 0.431976 0.0794826 6.22778 0.00885955 11.3996 0.00497219 11.1072 2.38524
8701.00 1314.29 1.098120 50.6013 0.773367 16.9778 0.439663 0.07779 6.22447 0.00869937 11.3914 0.00487939 11.2166 2.28406
8601.00 1313.61 1.100869 50.608 0.772292 16.9701 0.447405 0.0761445 6.22062 0.00854115 11.3824 0.00478774 11.3258 2.18397
8501.00 1312.93 1.103777 50.6153 0.771034 16.9622 0.455189 0.0745472 6.21619 0.0083849 11.3725 0.00469726 11.4349 2.08505
8401.00 1312.22 1.106855 50.6235 0.769579 16.9542 0.463004 0.072999 6.21113 0.00823066 11.3617 0.00460795 11.5437 1.98738
8301.00 1311.51 1.110110 50.6325 0.767909 16.9461 0.470838 0.071501 6.20536 0.00807846 11.35 0.00451984 11.6521 1.89106
8201.00 1310.78 1.113551 50.6427 0.766006 16.938 0.478677 0.0700543 6.19884 0.00792832 11.3374 0.00443294 11.7599 1.79616
8101.00 1310.03 1.117188 50.6541 0.763851 16.9297 0.486505 0.06866 6.1915 0.00778029 11.3237 0.00434726 11.8671 1.70278
8001.00 1309.27 1.121028 50.6669 0.761424 16.9214 0.494309 0.0673192 6.18327 0.0076344 11.309 0.00426284 11.9735 1.611
7901.00 1308.48 1.125081 50.6813 0.758706 16.9131 0.50207 0.0660333 6.1741 0.00749069 11.2931 0.00417968 12.079 1.52094
7801.00 1307.68 1.129353 50.6975 0.755675 16.9047 0.509772 0.0648034 6.1639 0.0073492 11.2762 0.0040978 12.1833 1.43268
7701.00 1306.86 1.133853 50.7157 0.752308 16.8963 0.517396 0.063631 6.15262 0.00720998 11.258 0.00401724 12.2865 1.34633
7601.00 1306.02 1.138585 50.736 0.748584 16.8879 0.524923 0.0625173 6.14018 0.00707306 11.2387 0.00393801 12.3882 1.262
7501.00 1305.15 1.143553 50.7588 0.74448 16.8794 0.532333 0.061464 6.12652 0.0069385 11.2181 0.00386013 12.4883 1.17978
7401.00 1304.27 1.148759 50.7843 0.739972 16.8708 0.539605 0.0604724 6.11155 0.00680635 11.1962 0.00378364 12.5867 1.0998
7301.00 1303.36 1.154201 50.8126 0.735037 16.8622 0.546717 0.0595443 6.09521 0.00667667 11.173 0.00370857 12.6831 1.02216
