Title: Depleted MORB Mantle of Workmann & Hart 2005

Liquid Composition:
Pressure Temperature mass SiO2 TiO2 Al2O3 Fe2O3 Cr2O3 FeO MnO MgO NiO CaO Na2O 
44001.00 1241.35 0.000000 ---
43901.00 1241.17 0.000000 ---
43801.00 1240.99 0.000000 ---
43701.00 1240.81 0.000000 ---
43601.00 1240.63 0.000000 ---
43501.00 1240.45 0.000000 ---
43401.00 1240.28 0.000000 ---
43301.00 1240.10 0.000000 ---
43201.00 1239.92 0.000000 ---
43101.00 1239.74 0.000000 ---
43001.00 1239.56 0.000000 ---
42901.00 1239.38 0.000000 ---
42801.00 1239.20 0.000000 ---
42701.00 1239.02 0.000000 ---
42601.00 1238.84 0.000000 ---
42501.00 1238.66 0.000000 ---
42401.00 1238.48 0.000000 ---
42301.00 1238.30 0.000000 ---
42201.00 1238.12 0.000000 ---
42101.00 1237.94 0.000000 ---
42001.00 1237.77 0.000000 ---
41901.00 1237.59 0.000000 ---
41801.00 1237.41 0.000000 ---
41701.00 1237.23 0.000000 ---
41601.00 1237.05 0.000000 ---
41501.00 1236.87 0.000000 ---
41401.00 1236.69 0.000000 ---
41301.00 1236.51 0.000000 ---
41201.00 1236.33 0.000000 ---
41101.00 1236.15 0.000000 ---
41001.00 1235.97 0.000000 ---
40901.00 1235.79 0.000000 ---
40801.00 1235.61 0.000000 ---
40701.00 1235.43 0.000000 ---
40601.00 1235.25 0.000000 ---
40501.00 1235.07 0.000000 ---
40401.00 1234.89 0.000000 ---
40301.00 1234.71 0.000000 ---
40201.00 1234.53 0.000000 ---
40101.00 1234.35 0.000000 ---
40001.00 1234.17 0.000000 ---
39901.00 1233.99 0.000000 ---
39801.00 1233.81 0.000000 ---
39701.00 1233.63 0.000000 ---
39601.00 1233.45 0.000000 ---
39501.00 1233.27 0.000000 ---
39401.00 1233.09 0.000000 ---
39301.00 1232.91 0.000000 ---
39201.00 1232.73 0.000000 ---
39101.00 1232.55 0.000000 ---
39001.00 1232.37 0.000000 ---
38901.00 1232.19 0.000000 ---
38801.00 1232.01 0.000000 ---
38701.00 1231.83 0.000000 ---
38601.00 1231.65 0.000000 ---
38501.00 1231.47 0.000000 ---
38401.00 1231.29 0.000000 ---
38301.00 1231.11 0.000000 ---
38201.00 1230.93 0.000000 ---
38101.00 1230.75 0.000000 ---
38001.00 1230.57 0.000000 ---
37901.00 1230.39 0.000000 ---
37801.00 1230.20 0.000000 ---
37701.00 1230.02 0.000000 ---
37601.00 1229.84 0.000000 ---
37501.00 1229.66 0.000000 ---
37401.00 1229.48 0.000000 ---
37301.00 1229.30 0.000000 ---
37201.00 1229.12 0.000000 ---
37101.00 1228.94 0.000000 ---
37001.00 1228.76 0.000000 ---
36901.00 1228.58 0.000000 ---
36801.00 1228.40 0.000000 ---
36701.00 1228.21 0.000000 ---
36601.00 1228.03 0.000000 ---
36501.00 1227.85 0.000000 ---
36401.00 1227.67 0.000000 ---
36301.00 1227.49 0.000000 ---
36201.00 1227.31 0.000000 ---
36101.00 1227.13 0.000000 ---
36001.00 1226.94 0.000000 ---
35901.00 1226.76 0.000000 ---
35801.00 1226.58 0.000000 ---
35701.00 1226.40 0.000000 ---
35601.00 1226.22 0.000000 ---
35501.00 1226.04 0.000000 ---
35401.00 1225.85 0.000000 ---
35301.00 1225.67 0.000000 ---
35201.00 1225.49 0.000000 ---
35101.00 1225.31 0.000000 ---
35001.00 1225.13 0.000000 ---
34901.00 1224.94 0.000000 ---
34801.00 1224.76 0.000000 ---
34701.00 1224.58 0.000000 ---
34601.00 1224.40 0.000000 ---
34501.00 1224.21 0.000000 ---
34401.00 1224.03 0.000000 ---
34301.00 1223.85 0.000000 ---
34201.00 1223.67 0.000000 ---
34101.00 1223.48 0.000000 ---
34001.00 1223.30 0.000000 ---
33901.00 1223.12 0.000000 ---
33801.00 1222.93 0.000000 ---
33701.00 1222.75 0.000000 ---
33601.00 1222.57 0.000000 ---
33501.00 1222.38 0.000000 ---
33401.00 1222.20 0.000000 ---
33301.00 1222.02 0.000000 ---
33201.00 1221.83 0.000000 ---
33101.00 1221.65 0.000000 ---
33001.00 1221.47 0.000000 ---
32901.00 1221.28 0.000000 ---
32801.00 1221.10 0.000000 ---
32701.00 1220.91 0.000000 ---
32601.00 1220.73 0.000000 ---
32501.00 1220.55 0.000000 ---
32401.00 1220.36 0.000000 ---
32301.00 1220.18 0.000000 ---
32201.00 1219.99 0.000000 ---
32101.00 1219.81 0.000000 ---
32001.00 1219.62 0.000000 ---
31901.00 1219.44 0.000000 ---
31801.00 1219.25 0.000000 ---
31701.00 1219.07 0.000000 ---
31601.00 1218.88 0.000000 ---
31501.00 1218.70 0.000000 ---
31401.00 1218.51 0.000000 ---
31301.00 1218.33 0.000000 ---
31201.00 1218.14 0.000000 ---
31101.00 1217.96 0.000000 ---
31001.00 1217.77 0.000000 ---
30901.00 1217.59 0.000000 ---
30801.00 1217.40 0.000000 ---
30701.00 1217.21 0.000000 ---
30601.00 1217.03 0.000000 ---
30501.00 1216.84 0.000000 ---
30401.00 1216.65 0.000000 ---
30301.00 1216.47 0.000000 ---
30201.00 1216.28 0.000000 ---
30101.00 1216.09 0.000000 ---
30001.00 1215.91 0.000000 ---
29901.00 1215.72 0.000000 ---
29801.00 1215.53 0.000000 ---
29701.00 1215.34 0.000000 ---
29601.00 1215.16 0.000000 ---
29501.00 1214.97 0.000000 ---
29401.00 1214.78 0.000000 ---
29301.00 1214.59 0.000000 ---
29201.00 1214.40 0.000000 ---
29101.00 1214.21 0.000000 ---
29001.00 1214.03 0.000000 ---
28901.00 1213.84 0.000000 ---
28801.00 1213.65 0.000000 ---
28701.00 1213.46 0.000000 ---
28601.00 1213.27 0.000000 ---
28501.00 1213.08 0.000000 ---
28401.00 1212.89 0.000000 ---
28301.00 1212.70 0.000000 ---
28201.00 1212.51 0.000000 ---
28101.00 1212.32 0.000000 ---
28001.00 1212.13 0.000000 ---
27901.00 1211.94 0.000000 ---
27801.00 1211.75 0.000000 ---
27701.00 1211.55 0.000000 ---
27601.00 1211.36 0.000000 ---
27501.00 1211.17 0.000000 ---
27401.00 1210.98 0.000000 ---
27301.00 1210.79 0.000000 ---
27201.00 1210.59 0.000000 ---
27101.00 1210.40 0.000000 ---
27001.00 1210.21 0.000000 ---
26901.00 1210.01 0.000000 ---
26801.00 1209.82 0.000000 ---
26701.00 1209.63 0.000000 ---
26601.00 1209.43 0.000000 ---
26501.00 1209.24 0.000000 ---
26401.00 1209.04 0.000000 ---
26301.00 1208.85 0.000000 ---
26201.00 1208.65 0.000000 ---
26101.00 1208.46 0.000000 ---
26001.00 1208.26 0.000000 ---
25901.00 1208.07 0.000000 ---
25801.00 1207.87 0.000000 ---
25701.00 1207.67 0.000000 ---
25601.00 1207.48 0.000000 ---
25501.00 1207.28 0.000000 ---
25401.00 1207.08 0.000000 ---
25301.00 1206.88 0.000000 ---
25201.00 1206.69 0.000000 ---
25101.00 1206.49 0.000000 ---
25001.00 1206.29 0.000000 ---
24901.00 1206.09 0.000000 ---
24801.00 1205.89 0.000000 ---
24701.00 1205.69 0.000000 ---
24601.00 1205.49 0.000000 ---
24501.00 1205.29 0.000000 ---
24401.00 1205.08 0.000000 ---
24301.00 1204.88 0.000000 ---
24201.00 1204.68 0.000000 ---
24101.00 1204.48 0.000000 ---
24001.00 1204.27 0.000000 ---
23901.00 1204.07 0.000000 ---
23801.00 1203.87 0.000000 ---
23701.00 1203.66 0.000000 ---
23601.00 1203.46 0.000000 ---
23501.00 1203.25 0.000000 ---
23401.00 1203.04 0.000000 ---
23301.00 1202.84 0.000000 ---
23201.00 1202.63 0.000000 ---
23101.00 1202.42 0.000000 ---
23001.00 1202.21 0.000000 ---
22901.00 1202.00 0.000000 ---
22801.00 1201.79 0.000000 ---
22701.00 1201.58 0.000000 ---
22601.00 1201.37 0.000000 ---
22501.00 1201.16 0.000000 ---
22401.00 1200.95 0.000000 ---
22301.00 1200.74 0.000000 ---
22201.00 1200.52 0.000000 ---
22101.00 1200.31 0.000000 ---
22001.00 1200.09 0.000000 ---
21901.00 1199.88 0.000000 ---
21801.00 1199.66 0.000000 ---
21701.00 1199.44 0.000000 ---
21601.00 1199.23 0.000000 ---
21501.00 1199.01 0.000000 ---
21401.00 1198.79 0.000000 ---
21301.00 1198.57 0.000000 ---
21201.00 1198.35 0.000000 ---
21101.00 1198.12 0.000000 ---
21001.00 1197.90 0.000000 ---
20901.00 1197.68 0.000000 ---
20801.00 1197.45 0.000000 ---
20701.00 1197.23 0.000000 ---
20601.00 1197.00 0.000000 ---
20501.00 1196.77 0.000000 ---
20401.00 1196.54 0.000000 ---
20301.00 1196.31 0.000000 ---
20201.00 1196.08 0.000000 ---
20101.00 1195.85 0.000000 ---
20001.00 1195.61 0.000000 ---
19901.00 1195.38 0.000000 ---
19801.00 1195.14 0.000000 ---
19701.00 1194.90 0.000000 ---
19601.00 1194.66 0.000000 ---
19501.00 1194.42 0.000000 ---
19401.00 1194.18 0.000000 ---
19301.00 1193.94 0.000000 ---
19201.00 1193.69 0.000000 ---
19101.00 1193.44 0.000000 ---
19001.00 1193.20 0.000000 ---
18901.00 1192.94 0.000000 ---
18801.00 1192.69 0.000000 ---
18701.00 1192.44 0.000000 ---
18601.00 1192.18 0.000000 ---
18501.00 1191.92 0.000000 ---
18401.00 1191.66 0.000000 ---
18301.00 1191.40 0.000000 ---
18201.00 1191.13 0.000000 ---
18101.00 1190.86 0.000000 ---
18001.00 1190.59 0.000000 ---
17901.00 1190.32 0.000000 ---
17801.00 1190.04 0.000000 ---
17701.00 1189.76 0.000000 ---
17601.00 1189.48 0.000000 ---
17501.00 1189.19 0.000000 ---
17401.00 1188.90 0.000000 ---
17301.00 1188.61 0.000000 ---
17201.00 1188.40 0.000000 ---
17101.00 1188.24 0.000000 ---
17001.00 1188.07 0.000000 ---
16901.00 1187.91 0.000000 ---
16801.00 1187.74 0.000000 ---
16701.00 1187.57 0.000000 ---
16601.00 1187.41 0.000000 ---
16501.00 1187.24 0.000000 ---
16401.00 1187.07 0.000000 ---
16301.00 1186.91 0.000000 ---
16201.00 1186.74 0.000000 ---
16101.00 1186.57 0.000000 ---
16001.00 1186.41 0.000000 ---
15901.00 1186.24 0.000000 ---
15801.00 1186.08 0.000000 ---
15701.00 1185.91 0.000000 ---
15601.00 1185.74 0.000000 ---
15501.00 1185.58 0.000000 ---
15401.00 1185.41 0.000000 ---
15301.00 1185.24 0.000000 ---
15201.00 1185.08 0.000000 ---
15101.00 1184.91 0.000000 ---
15001.00 1184.75 0.000000 ---
14901.00 1184.58 0.000000 ---
14801.00 1184.41 0.000000 ---
14701.00 1184.25 0.000000 ---
14601.00 1184.08 0.000000 ---
14501.00 1183.91 0.000000 ---
14401.00 1183.75 0.000000 ---
14301.00 1183.58 0.000000 ---
14201.00 1183.42 0.000000 ---
14101.00 1183.25 0.000000 ---
14001.00 1183.08 0.000000 ---
13901.00 1182.92 0.000000 ---
13801.00 1182.75 0.000000 ---
13701.00 1182.59 0.000000 ---
13601.00 1182.42 0.000000 ---
13501.00 1182.25 0.000000 ---
13401.00 1182.09 0.000000 ---
13301.00 1181.92 0.000000 ---
13201.00 1181.76 0.000000 ---
13101.00 1181.59 0.000000 ---
13001.00 1181.42 0.000000 ---
12901.00 1181.26 0.000000 ---
12801.00 1181.09 0.000000 ---
12701.00 1180.92 0.000000 ---
12601.00 1180.76 0.000000 ---
12501.00 1180.59 0.000000 ---
12401.00 1180.43 0.000000 ---
12301.00 1180.26 0.000000 ---
12201.00 1180.09 0.000000 ---
12101.00 1179.93 0.000000 ---
12001.00 1179.76 0.000000 ---
11901.00 1179.60 0.000000 ---
11801.00 1179.43 0.000000 ---
11701.00 1179.26 0.000000 ---
11601.00 1179.10 0.000000 ---
11501.00 1178.93 0.000000 ---
11401.00 1178.77 0.000000 ---
11301.00 1178.60 0.000000 ---
11201.00 1178.43 0.000000 ---
11101.00 1178.27 0.000000 ---
11001.00 1178.10 0.000000 ---
10901.00 1177.94 0.000000 ---
10801.00 1177.77 0.000000 ---
10701.00 1177.60 0.000000 ---
10601.00 1177.44 0.000000 ---
10501.00 1177.27 0.000000 ---
10401.00 1177.11 0.000000 ---
10301.00 1176.94 0.000000 ---
10201.00 1176.77 0.000000 ---
10101.00 1176.61 0.000000 ---
10001.00 1176.44 0.000000 ---
9901.00 1176.28 0.000000 ---
9801.00 1176.11 0.000000 ---
9701.00 1175.95 0.000000 ---
9601.00 1175.78 0.000000 ---
9501.00 1175.61 0.000000 ---
9401.00 1175.38 0.000000 ---
9301.00 1175.15 0.000000 ---
9201.00 1174.92 0.000000 ---
9101.00 1174.69 0.000000 ---
9001.00 1174.46 0.000000 ---
8901.00 1174.24 0.000000 ---
8801.00 1174.01 0.000000 ---
8701.00 1173.79 0.000000 ---
8601.00 1173.56 0.000000 ---
8501.00 1173.34 0.000000 ---
8401.00 1173.12 0.000000 ---
8301.00 1172.90 0.000000 ---
8201.00 1172.67 0.000000 ---
8101.00 1172.45 0.000000 ---
8001.00 1172.23 0.000000 ---
7901.00 1172.01 0.000000 ---
7801.00 1171.79 0.000000 ---
7701.00 1171.57 0.000000 ---
7601.00 1171.34 0.000000 ---
7501.00 1171.12 0.000000 ---
7401.00 1170.90 0.000000 ---
7301.00 1170.68 0.000000 ---
7201.00 1170.46 0.000000 ---
7101.00 1170.24 0.000000 ---
7001.00 1170.02 0.000000 ---
6901.00 1169.79 0.000000 ---
6801.00 1169.57 0.000000 ---
6701.00 1169.35 0.000000 ---
6601.00 1169.12 0.000000 ---
6501.00 1168.90 0.000000 ---
6401.00 1168.68 0.000000 ---
6301.00 1168.45 0.000000 ---
6201.00 1168.22 0.000000 ---
6101.00 1168.00 0.000000 ---
6001.00 1167.77 0.000000 ---
5901.00 1167.54 0.000000 ---
5801.00 1167.31 0.000000 ---
5701.00 1167.08 0.000000 ---
5601.00 1166.85 0.000000 ---
5501.00 1166.62 0.000000 ---
5401.00 1166.38 0.000000 ---
5301.00 1166.15 0.000000 ---
5201.00 1165.91 0.000000 ---
5101.00 1165.68 0.000000 ---
5001.00 1165.44 0.000000 ---
4901.00 1165.20 0.000000 ---
4801.00 1164.96 0.000000 ---
4701.00 1164.72 0.000000 ---
4601.00 1164.49 0.000000 ---
4501.00 1164.25 0.000000 ---
4401.00 1164.01 0.000000 ---
4301.00 1163.77 0.000000 ---
4201.00 1163.53 0.000000 ---
4101.00 1163.29 0.000000 ---
4001.00 1163.05 0.000000 ---
3901.00 1162.82 0.000000 ---
3801.00 1162.58 0.000000 ---
3701.00 1162.35 0.000000 ---
3601.00 1162.11 0.000000 ---
3501.00 1161.88 0.000000 ---
3401.00 1161.66 0.000000 ---
3301.00 1161.43 0.000000 ---
3201.00 1161.20 0.000000 ---
3101.00 1160.98 0.000000 ---
3001.00 1160.76 0.000000 ---
2901.00 1160.54 0.000000 ---
2801.00 1160.33 0.000000 ---
2701.00 1160.11 0.000000 ---
2601.00 1159.90 0.000000 ---
2501.00 1159.69 0.000000 ---
2401.00 1159.49 0.000000 ---
2301.00 1159.28 0.000000 ---
2201.00 1159.08 0.000000 ---
2101.00 1158.88 0.000000 ---
2001.00 1158.68 0.000000 ---
1901.00 1158.33 0.066415 57.3934 1.37595 17.6209 0.663967 0.0908473 3.29904 0.00303902 6.98025 0.00150361 10.6239 1.9472
1801.00 1156.63 0.711827 57.5471 1.32291 17.6019 0.66113 0.0900119 3.26246 0.00296054 6.94321 0.00146222 10.6589 1.90799
1701.00 1154.89 1.377493 57.7018 1.27109 17.5827 0.657656 0.0892142 3.22562 0.00288406 6.90548 0.0014219 10.6917 1.87036
1601.00 1153.13 1.676788 57.8578 1.21936 17.5639 0.653591 0.0884256 3.18865 0.00280913 6.86721 0.00138246 10.7231 1.83378
1501.00 1151.35 1.677968 58.0154 1.16685 17.5456 0.648957 0.0876259 3.15163 0.00273543 6.82852 0.00134372 10.7536 1.79781
1401.00 1149.54 1.679183 58.1742 1.11374 17.5278 0.643772 0.0868156 3.11462 0.00266297 6.78945 0.0013057 10.7832 1.76238
1301.00 1147.71 1.680447 58.334 1.06022 17.5106 0.638055 0.085995 3.07767 0.00259177 6.75005 0.00126841 10.8121 1.7274
1201.00 1145.86 1.681768 58.4944 1.00648 17.4941 0.631828 0.0851642 3.04081 0.00252183 6.71037 0.00123184 10.8404 1.69276
1101.00 1143.99 1.683149 58.655 0.952696 17.4781 0.625111 0.0843235 3.00411 0.00245316 6.67045 0.00119599 10.8682 1.65838
1001.00 1142.10 1.684593 58.8155 0.89907 17.4627 0.617928 0.0834728 2.96759 0.00238577 6.63034 0.00116087 10.8956 1.62414
901.00 1140.18 1.686092 58.9757 0.84579 17.448 0.610303 0.0826117 2.93132 0.00231964 6.5901 0.00112647 10.9228 1.58992
801.00 1138.23 1.687636 59.1349 0.793049 17.434 0.602261 0.0817398 2.89535 0.00225478 6.54977 0.00109279 10.95 1.5556
701.00 1136.26 1.689204 59.2929 0.741038 17.4207 0.593828 0.0808561 2.85972 0.00219116 6.50943 0.00105981 10.9772 1.52105
601.00 1134.26 1.690766 59.4493 0.689944 17.4081 0.585032 0.0799592 2.82449 0.00212876 6.46913 0.00102752 11.0048 1.4861
501.00 1132.23 1.692280 59.6035 0.639953 17.3962 0.575904 0.079047 2.78973 0.00206757 6.42894 0.000995907 11.033 1.45059
401.00 1130.18 1.693685 59.7551 0.591244 17.3853 0.566477 0.0781169 2.75549 0.00200754 6.38895 0.000964955 11.0621 1.4143
301.00 1128.10 1.694901 59.9034 0.543992 17.3752 0.556786 0.0771652 2.72187 0.00194863 6.34926 0.000934638 11.0924 1.37701
201.00 1125.99 1.695821 60.048 0.498363 17.3661 0.546873 0.076187 2.68893 0.00189078 6.30996 0.000904927 11.1243 1.33843
101.00 1123.86 1.696295 60.1881 0.454517 17.3582 0.536783 0.0751759 2.6568 0.00183391 6.27119 0.000875788 11.1584 1.29823
1.00 1121.69 1.696124 60.3227 0.412604 17.3515 0.526571 0.0741235 2.62559 0.00177795 6.2331 0.000847178 11.1952 1.25597