Title: Depleted MORB Mantle of Workmann & Hart 2005

Phase Masses:
Pressure Temperature mass liquid_0 olivine_0 garnet_0 orthopyroxene_0 clinopyroxene_0 feldspar_0 spinel_0 
44001.00 1241.35 100.138999 0.000000 59.071240 13.721504 13.808683 12.532054 0.000000 1.005518 
43901.00 1241.17 100.138999 0.000000 59.070708 13.713949 13.815986 12.532215 0.000000 1.006141 
43801.00 1240.99 100.138999 0.000000 59.070173 13.706342 13.823329 12.532387 0.000000 1.006769 
43701.00 1240.81 100.138999 0.000000 59.069633 13.698681 13.830712 12.532572 0.000000 1.007401 
43601.00 1240.63 100.138999 0.000000 59.069090 13.690968 13.838135 12.532770 0.000000 1.008037 
43501.00 1240.45 100.138999 0.000000 59.068542 13.683201 13.845599 12.532980 0.000000 1.008678 
43401.00 1240.28 100.138999 0.000000 59.067990 13.675379 13.853104 12.533203 0.000000 1.009323 
43301.00 1240.10 100.138999 0.000000 59.067434 13.667503 13.860651 12.533438 0.000000 1.009973 
43201.00 1239.92 100.138999 0.000000 59.066874 13.659571 13.868239 12.533687 0.000000 1.010628 
43101.00 1239.74 100.138999 0.000000 59.066309 13.651583 13.875870 12.533949 0.000000 1.011288 
43001.00 1239.56 100.138999 0.000000 59.065741 13.643539 13.883543 12.534224 0.000000 1.011953 
42901.00 1239.38 100.138999 0.000000 59.065167 13.635439 13.891259 12.534512 0.000000 1.012622 
42801.00 1239.20 100.138999 0.000000 59.064589 13.627280 13.899019 12.534814 0.000000 1.013296 
42701.00 1239.02 100.138999 0.000000 59.064007 13.619064 13.906822 12.535130 0.000000 1.013976 
42601.00 1238.84 100.138999 0.000000 59.063420 13.610790 13.914670 12.535459 0.000000 1.014661 
42501.00 1238.66 100.138999 0.000000 59.062828 13.602456 13.922562 12.535803 0.000000 1.015350 
42401.00 1238.48 100.138999 0.000000 59.062232 13.594063 13.930498 12.536160 0.000000 1.016045 
42301.00 1238.30 100.138999 0.000000 59.061630 13.585610 13.938481 12.536532 0.000000 1.016746 
42201.00 1238.12 100.138999 0.000000 59.061024 13.577096 13.946508 12.536919 0.000000 1.017452 
42101.00 1237.94 100.138999 0.000000 59.060413 13.568521 13.954582 12.537320 0.000000 1.018163 
42001.00 1237.77 100.138999 0.000000 59.059797 13.559884 13.962703 12.537736 0.000000 1.018880 
41901.00 1237.59 100.138999 0.000000 59.059175 13.551184 13.970871 12.538167 0.000000 1.019603 
41801.00 1237.41 100.138999 0.000000 59.058549 13.542421 13.979085 12.538613 0.000000 1.020331 
41701.00 1237.23 100.138999 0.000000 59.057917 13.533595 13.987348 12.539074 0.000000 1.021065 
41601.00 1237.05 100.138999 0.000000 59.057280 13.524704 13.995659 12.539551 0.000000 1.021805 
41501.00 1236.87 100.138999 0.000000 59.056638 13.515749 14.004019 12.540043 0.000000 1.022551 
41401.00 1236.69 100.138999 0.000000 59.055990 13.506727 14.012428 12.540551 0.000000 1.023303 
41301.00 1236.51 100.138999 0.000000 59.055336 13.497640 14.020887 12.541075 0.000000 1.024061 
41201.00 1236.33 100.138999 0.000000 59.054677 13.488486 14.029396 12.541615 0.000000 1.024825 
41101.00 1236.15 100.138999 0.000000 59.054012 13.479264 14.037955 12.542172 0.000000 1.025596 
41001.00 1235.97 100.138999 0.000000 59.053341 13.469974 14.046566 12.542744 0.000000 1.026373 
40901.00 1235.79 100.138999 0.000000 59.052665 13.460616 14.055228 12.543334 0.000000 1.027157 
40801.00 1235.61 100.138999 0.000000 59.051982 13.451187 14.063942 12.543941 0.000000 1.027947 
40701.00 1235.43 100.138999 0.000000 59.051293 13.441689 14.072709 12.544564 0.000000 1.028744 
40601.00 1235.25 100.138999 0.000000 59.050599 13.432119 14.081529 12.545205 0.000000 1.029548 
40501.00 1235.07 100.138999 0.000000 59.049897 13.422478 14.090402 12.545863 0.000000 1.030358 
40401.00 1234.89 100.138999 0.000000 59.049190 13.412765 14.099330 12.546539 0.000000 1.031176 
40301.00 1234.71 100.138999 0.000000 59.048476 13.402978 14.108312 12.547233 0.000000 1.032001 
40201.00 1234.53 100.138999 0.000000 59.047755 13.393117 14.117349 12.547944 0.000000 1.032833 
40101.00 1234.35 100.138999 0.000000 59.047028 13.383182 14.126442 12.548674 0.000000 1.033672 
40001.00 1234.17 100.138999 0.000000 59.046294 13.373172 14.135592 12.549422 0.000000 1.034519 
39901.00 1233.99 100.138999 0.000000 59.045554 13.363085 14.144798 12.550189 0.000000 1.035373 
39801.00 1233.81 100.138999 0.000000 59.044806 13.352921 14.154062 12.550975 0.000000 1.036235 
39701.00 1233.63 100.138999 0.000000 59.044051 13.342680 14.163383 12.551780 0.000000 1.037105 
39601.00 1233.45 100.138999 0.000000 59.043289 13.332360 14.172764 12.552604 0.000000 1.037983 
39501.00 1233.27 100.138999 0.000000 59.042519 13.321960 14.182203 12.553448 0.000000 1.038869 
39401.00 1233.09 100.138999 0.000000 59.041743 13.311480 14.191702 12.554311 0.000000 1.039763 
39301.00 1232.91 100.138999 0.000000 59.040958 13.300919 14.201262 12.555194 0.000000 1.040665 
39201.00 1232.73 100.138999 0.000000 59.040166 13.290277 14.210883 12.556098 0.000000 1.041576 
39101.00 1232.55 100.138999 0.000000 59.039366 13.279551 14.220565 12.557022 0.000000 1.042495 
39001.00 1232.37 100.138999 0.000000 59.038558 13.268742 14.230310 12.557966 0.000000 1.043423 
38901.00 1232.19 100.138999 0.000000 59.037743 13.257848 14.240118 12.558932 0.000000 1.044360 
38801.00 1232.01 100.138999 0.000000 59.036919 13.246868 14.249989 12.559918 0.000000 1.045305 
38701.00 1231.83 100.138999 0.000000 59.036086 13.235802 14.259925 12.560926 0.000000 1.046260 
38601.00 1231.65 100.138999 0.000000 59.035245 13.224648 14.269925 12.561956 0.000000 1.047224 
38501.00 1231.47 100.138999 0.000000 59.034396 13.213407 14.279992 12.563007 0.000000 1.048198 
38401.00 1231.29 100.138999 0.000000 59.033538 13.202075 14.290124 12.564080 0.000000 1.049181 
38301.00 1231.11 100.138999 0.000000 59.032671 13.190654 14.300324 12.565176 0.000000 1.050174 
38201.00 1230.93 100.138999 0.000000 59.031795 13.179141 14.310592 12.566295 0.000000 1.051177 
38101.00 1230.75 100.138999 0.000000 59.030910 13.167536 14.320928 12.567436 0.000000 1.052189 
38001.00 1230.57 100.138999 0.000000 59.030015 13.155837 14.331334 12.568601 0.000000 1.053212 
37901.00 1230.39 100.138999 0.000000 59.029111 13.144044 14.341809 12.569789 0.000000 1.054246 
37801.00 1230.20 100.138999 0.000000 59.028197 13.132155 14.352356 12.571001 0.000000 1.055290 
37701.00 1230.02 100.138999 0.000000 59.027274 13.120170 14.362974 12.572237 0.000000 1.056345 
37601.00 1229.84 100.138999 0.000000 59.026340 13.108087 14.373665 12.573497 0.000000 1.057410 
37501.00 1229.66 100.138999 0.000000 59.025396 13.095905 14.384429 12.574782 0.000000 1.058487 
37401.00 1229.48 100.138999 0.000000 59.024442 13.083624 14.395267 12.576091 0.000000 1.059575 
37301.00 1229.30 100.138999 0.000000 59.023477 13.071241 14.406180 12.577426 0.000000 1.060675 
37201.00 1229.12 100.138999 0.000000 59.022502 13.058755 14.417169 12.578786 0.000000 1.061786 
37101.00 1228.94 100.138999 0.000000 59.021516 13.046167 14.428235 12.580172 0.000000 1.062910 
37001.00 1228.76 100.138999 0.000000 59.020518 13.033473 14.439378 12.581585 0.000000 1.064045 
36901.00 1228.58 100.138999 0.000000 59.019509 13.020674 14.450600 12.583023 0.000000 1.065193 
36801.00 1228.40 100.138999 0.000000 59.018489 13.007767 14.461901 12.584489 0.000000 1.066353 
36701.00 1228.21 100.138999 0.000000 59.017457 12.994752 14.473282 12.585981 0.000000 1.067526 
36601.00 1228.03 100.138999 0.000000 59.016413 12.981627 14.484745 12.587501 0.000000 1.068712 
36501.00 1227.85 100.138999 0.000000 59.015357 12.968391 14.496290 12.589049 0.000000 1.069912 
36401.00 1227.67 100.138999 0.000000 59.014289 12.955042 14.507918 12.590625 0.000000 1.071125 
36301.00 1227.49 100.138999 0.000000 59.013208 12.941580 14.519631 12.592229 0.000000 1.072351 
36201.00 1227.31 100.138999 0.000000 59.012114 12.928002 14.531429 12.593862 0.000000 1.073592 
36101.00 1227.13 100.138999 0.000000 59.011007 12.914308 14.543313 12.595525 0.000000 1.074846 
36001.00 1226.94 100.138999 0.000000 59.009887 12.900495 14.555285 12.597217 0.000000 1.076115 
35901.00 1226.76 100.138999 0.000000 59.008753 12.886563 14.567345 12.598938 0.000000 1.077399 
35801.00 1226.58 100.138999 0.000000 59.007606 12.872510 14.579494 12.600691 0.000000 1.078698 
35701.00 1226.40 100.138999 0.000000 59.006444 12.858334 14.591735 12.602473 0.000000 1.080013 
35601.00 1226.22 100.138999 0.000000 59.005268 12.844034 14.604067 12.604287 0.000000 1.081342 
35501.00 1226.04 100.138999 0.000000 59.004078 12.829609 14.616492 12.606133 0.000000 1.082688 
35401.00 1225.85 100.138999 0.000000 59.002872 12.815056 14.629011 12.608010 0.000000 1.084050 
35301.00 1225.67 100.138999 0.000000 59.001651 12.800374 14.641626 12.609919 0.000000 1.085429 
35201.00 1225.49 100.138999 0.000000 59.000415 12.785561 14.654337 12.611862 0.000000 1.086824 
35101.00 1225.31 100.138999 0.000000 58.999163 12.770616 14.667147 12.613837 0.000000 1.088236 
35001.00 1225.13 100.138999 0.000000 58.997895 12.755537 14.680055 12.615846 0.000000 1.089666 
34901.00 1224.94 100.138999 0.000000 58.996611 12.740322 14.693064 12.617889 0.000000 1.091113 
34801.00 1224.76 100.138999 0.000000 58.995310 12.724969 14.706174 12.619967 0.000000 1.092579 
34701.00 1224.58 100.138999 0.000000 58.993992 12.709477 14.719388 12.622079 0.000000 1.094063 
34601.00 1224.40 100.138999 0.000000 58.992656 12.693844 14.732706 12.624227 0.000000 1.095566 
34501.00 1224.21 100.138999 0.000000 58.991303 12.678067 14.746130 12.626411 0.000000 1.097089 
34401.00 1224.03 100.138999 0.000000 58.989932 12.662145 14.759661 12.628631 0.000000 1.098631 
34301.00 1223.85 100.138999 0.000000 58.988542 12.646076 14.773301 12.630888 0.000000 1.100192 
34201.00 1223.67 100.138999 0.000000 58.987133 12.629858 14.787051 12.633182 0.000000 1.101775 
34101.00 1223.48 100.138999 0.000000 58.985705 12.613488 14.800914 12.635514 0.000000 1.103378 
34001.00 1223.30 100.138999 0.000000 58.984258 12.596966 14.814889 12.637885 0.000000 1.105002 
33901.00 1223.12 100.138999 0.000000 58.982790 12.580287 14.828980 12.640294 0.000000 1.106648 
33801.00 1222.93 100.138999 0.000000 58.981302 12.563451 14.843187 12.642743 0.000000 1.108316 
33701.00 1222.75 100.138999 0.000000 58.979793 12.546455 14.857512 12.645232 0.000000 1.110007 
33601.00 1222.57 100.138999 0.000000 58.978263 12.529297 14.871957 12.647761 0.000000 1.111720 
33501.00 1222.38 100.138999 0.000000 58.976712 12.511974 14.886524 12.650332 0.000000 1.113457 
33401.00 1222.20 100.138999 0.000000 58.975138 12.494485 14.901214 12.652944 0.000000 1.115219 
33301.00 1222.02 100.138999 0.000000 58.973541 12.476826 14.916029 12.655598 0.000000 1.117004 
33201.00 1221.83 100.138999 0.000000 58.971921 12.458996 14.930972 12.658296 0.000000 1.118815 
33101.00 1221.65 100.138999 0.000000 58.970278 12.440991 14.946043 12.661037 0.000000 1.120651 
33001.00 1221.47 100.138999 0.000000 58.968610 12.422809 14.961245 12.663822 0.000000 1.122513 
32901.00 1221.28 100.138999 0.000000 58.966918 12.404448 14.976580 12.666652 0.000000 1.124402 
32801.00 1221.10 100.138999 0.000000 58.965201 12.385905 14.992050 12.669527 0.000000 1.126318 
32701.00 1220.91 100.138999 0.000000 58.963457 12.367176 15.007656 12.672448 0.000000 1.128261 
32601.00 1220.73 100.138999 0.000000 58.961688 12.348260 15.023401 12.675416 0.000000 1.130233 
32501.00 1220.55 100.138999 0.000000 58.959892 12.329154 15.039287 12.678432 0.000000 1.132234 
32401.00 1220.36 100.138999 0.000000 58.958068 12.309853 15.055317 12.681496 0.000000 1.134265 
32301.00 1220.18 100.138999 0.000000 58.956216 12.290357 15.071492 12.684609 0.000000 1.136326 
32201.00 1219.99 100.138999 0.000000 58.954335 12.270661 15.087814 12.687771 0.000000 1.138418 
32101.00 1219.81 100.138999 0.000000 58.952425 12.250762 15.104287 12.690984 0.000000 1.140541 
32001.00 1219.62 100.138999 0.000000 58.950485 12.230657 15.120912 12.694248 0.000000 1.142697 
31901.00 1219.44 100.138999 0.000000 58.948515 12.210343 15.137692 12.697564 0.000000 1.144886 
31801.00 1219.25 100.138999 0.000000 58.946512 12.189816 15.154630 12.700932 0.000000 1.147109 
31701.00 1219.07 100.138999 0.000000 58.944478 12.169074 15.171727 12.704354 0.000000 1.149366 
31601.00 1218.88 100.138999 0.000000 58.942411 12.148112 15.188987 12.707831 0.000000 1.151658 
31501.00 1218.70 100.138999 0.000000 58.940310 12.126927 15.206412 12.711363 0.000000 1.153987 
31401.00 1218.51 100.138999 0.000000 58.938175 12.105515 15.224005 12.714951 0.000000 1.156352 
31301.00 1218.33 100.138999 0.000000 58.936005 12.083873 15.241769 12.718596 0.000000 1.158756 
31201.00 1218.14 100.138999 0.000000 58.933799 12.061997 15.259707 12.722299 0.000000 1.161198 
31101.00 1217.96 100.138999 0.000000 58.931556 12.039882 15.277821 12.726060 0.000000 1.163680 
31001.00 1217.77 100.138999 0.000000 58.929275 12.017526 15.296115 12.729882 0.000000 1.166202 
30901.00 1217.59 100.138999 0.000000 58.926956 11.994923 15.314591 12.733764 0.000000 1.168765 
30801.00 1217.40 100.138999 0.000000 58.924597 11.972069 15.333254 12.737709 0.000000 1.171372 
30701.00 1217.21 100.138999 0.000000 58.922197 11.948960 15.352105 12.741716 0.000000 1.174021 
30601.00 1217.03 100.138999 0.000000 58.919756 11.925592 15.371149 12.745786 0.000000 1.176715 
30501.00 1216.84 100.138999 0.000000 58.917273 11.901960 15.390389 12.749922 0.000000 1.179454 
30401.00 1216.65 100.138999 0.000000 58.914746 11.878060 15.409828 12.754124 0.000000 1.182241 
30301.00 1216.47 100.138999 0.000000 58.912175 11.853886 15.429470 12.758393 0.000000 1.185074 
30201.00 1216.28 100.138999 0.000000 58.909558 11.829435 15.449319 12.762730 0.000000 1.187957 
30101.00 1216.09 100.138999 0.000000 58.906895 11.804700 15.469378 12.767137 0.000000 1.190890 
30001.00 1215.91 100.138999 0.000000 58.904183 11.779677 15.489651 12.771615 0.000000 1.193874 
29901.00 1215.72 100.138999 0.000000 58.901422 11.754360 15.510142 12.776164 0.000000 1.196911 
29801.00 1215.53 100.138999 0.000000 58.898611 11.728744 15.530855 12.780786 0.000000 1.200002 
29701.00 1215.34 100.138999 0.000000 58.895749 11.702824 15.551795 12.785483 0.000000 1.203147 
29601.00 1215.16 100.138999 0.000000 58.892834 11.676594 15.572966 12.790256 0.000000 1.206350 
29501.00 1214.97 100.138999 0.000000 58.889864 11.650047 15.594371 12.795106 0.000000 1.209610 
29401.00 1214.78 100.138999 0.000000 58.886839 11.623179 15.616016 12.800035 0.000000 1.212930 
29301.00 1214.59 100.138999 0.000000 58.883757 11.595983 15.637905 12.805043 0.000000 1.216310 
29201.00 1214.40 100.138999 0.000000 58.880617 11.568453 15.660043 12.810133 0.000000 1.219753 
29101.00 1214.21 100.138999 0.000000 58.877417 11.540582 15.682435 12.815306 0.000000 1.223261 
29001.00 1214.03 100.138999 0.000000 58.874155 11.512363 15.705085 12.820563 0.000000 1.226833 
28901.00 1213.84 100.138999 0.000000 58.870830 11.483790 15.727999 12.825906 0.000000 1.230474 
28801.00 1213.65 100.138999 0.000000 58.867441 11.454857 15.751182 12.831337 0.000000 1.234183 
28701.00 1213.46 100.138999 0.000000 58.863985 11.425555 15.774639 12.836857 0.000000 1.237963 
28601.00 1213.27 100.138999 0.000000 58.860462 11.395877 15.798376 12.842468 0.000000 1.241816 
28501.00 1213.08 100.138999 0.000000 58.856868 11.365816 15.822399 12.848172 0.000000 1.245743 
28401.00 1212.89 100.138999 0.000000 58.853203 11.335365 15.846713 12.853971 0.000000 1.249747 
28301.00 1212.70 100.138999 0.000000 58.849464 11.304514 15.871325 12.859866 0.000000 1.253829 
28201.00 1212.51 100.138999 0.000000 58.845650 11.273257 15.896240 12.865859 0.000000 1.257992 
28101.00 1212.32 100.138999 0.000000 58.841758 11.241584 15.921466 12.871953 0.000000 1.262238 
28001.00 1212.13 100.138999 0.000000 58.837787 11.209488 15.947007 12.878148 0.000000 1.266569 
27901.00 1211.94 100.138999 0.000000 58.833734 11.176959 15.972872 12.884448 0.000000 1.270986 
27801.00 1211.75 100.138999 0.000000 58.829597 11.143987 15.999066 12.890855 0.000000 1.275493 
27701.00 1211.55 100.138999 0.000000 58.825374 11.110565 16.025598 12.897370 0.000000 1.280092 
27601.00 1211.36 100.138999 0.000000 58.821063 11.076682 16.052473 12.903995 0.000000 1.284786 
27501.00 1211.17 100.138999 0.000000 58.816660 11.042328 16.079701 12.910734 0.000000 1.289576 
27401.00 1210.98 100.138999 0.000000 58.812165 11.007494 16.107287 12.917588 0.000000 1.294465 
27301.00 1210.79 100.138999 0.000000 58.807573 10.972168 16.135240 12.924560 0.000000 1.299457 
27201.00 1210.59 100.138999 0.000000 58.802883 10.936341 16.163569 12.931652 0.000000 1.304553 
27101.00 1210.40 100.138999 0.000000 58.798092 10.900001 16.192281 12.938867 0.000000 1.309758 
27001.00 1210.21 100.138999 0.000000 58.793198 10.863137 16.221385 12.946208 0.000000 1.315073 
26901.00 1210.01 100.138999 0.000000 58.788196 10.825737 16.250889 12.953676 0.000000 1.320501 
26801.00 1209.82 100.138999 0.000000 58.783084 10.787790 16.280803 12.961275 0.000000 1.326047 
26701.00 1209.63 100.138999 0.000000 58.777860 10.749283 16.311136 12.969008 0.000000 1.331712 
26601.00 1209.43 100.138999 0.000000 58.772520 10.710203 16.341897 12.976878 0.000000 1.337501 
26501.00 1209.24 100.138999 0.000000 58.767061 10.670538 16.373097 12.984887 0.000000 1.343416 
26401.00 1209.04 100.138999 0.000000 58.761480 10.630274 16.404744 12.993039 0.000000 1.349461 
26301.00 1208.85 100.138999 0.000000 58.755773 10.589398 16.436850 13.001337 0.000000 1.355641 
26201.00 1208.65 100.138999 0.000000 58.749936 10.547896 16.469425 13.009784 0.000000 1.361958 
26101.00 1208.46 100.138999 0.000000 58.743967 10.505753 16.502480 13.018384 0.000000 1.368416 
26001.00 1208.26 100.138999 0.000000 58.737861 10.462954 16.536026 13.027140 0.000000 1.375019 
25901.00 1208.07 100.138999 0.000000 58.731614 10.419484 16.570074 13.036055 0.000000 1.381772 
25801.00 1207.87 100.138999 0.000000 58.725223 10.375327 16.604637 13.045133 0.000000 1.388678 
25701.00 1207.67 100.138999 0.000000 58.718684 10.330467 16.639727 13.054379 0.000000 1.395742 
25601.00 1207.48 100.138999 0.000000 58.711992 10.284888 16.675356 13.063795 0.000000 1.402968 
25501.00 1207.28 100.138999 0.000000 58.705143 10.238572 16.711536 13.073387 0.000000 1.410361 
25401.00 1207.08 100.138999 0.000000 58.698132 10.191502 16.748282 13.083157 0.000000 1.417925 
25301.00 1206.88 100.138999 0.000000 58.690956 10.143660 16.785606 13.093111 0.000000 1.425666 
25201.00 1206.69 100.138999 0.000000 58.683609 10.095027 16.823524 13.103252 0.000000 1.433588 
25101.00 1206.49 100.138999 0.000000 58.676086 10.045583 16.862048 13.113585 0.000000 1.441696 
25001.00 1206.29 100.138999 0.000000 58.668383 9.995310 16.901194 13.124115 0.000000 1.449996 
24901.00 1206.09 100.138999 0.000000 58.660494 9.944187 16.940977 13.134847 0.000000 1.458493 
24801.00 1205.89 100.138999 0.000000 58.652415 9.892194 16.981412 13.145785 0.000000 1.467193 
24701.00 1205.69 100.138999 0.000000 58.644138 9.839308 17.022517 13.156935 0.000000 1.476101 
24601.00 1205.49 100.138999 0.000000 58.635660 9.785507 17.064306 13.168301 0.000000 1.485224 
24501.00 1205.29 100.138999 0.000000 58.626974 9.730770 17.106798 13.179890 0.000000 1.494567 
24401.00 1205.08 100.138999 0.000000 58.618074 9.675072 17.150009 13.191706 0.000000 1.504137 
24301.00 1204.88 100.138999 0.000000 58.608954 9.618390 17.193959 13.203756 0.000000 1.513940 
24201.00 1204.68 100.138999 0.000000 58.599608 9.560699 17.238664 13.216045 0.000000 1.523983 
24101.00 1204.48 100.138999 0.000000 58.590029 9.501972 17.284144 13.228579 0.000000 1.534274 
24001.00 1204.27 100.138999 0.000000 58.580211 9.442185 17.330420 13.241366 0.000000 1.544818 
23901.00 1204.07 100.138999 0.000000 58.570146 9.381310 17.377510 13.254410 0.000000 1.555623 
23801.00 1203.87 100.138999 0.000000 58.559827 9.319319 17.425437 13.267719 0.000000 1.566697 
23701.00 1203.66 100.138999 0.000000 58.549248 9.256182 17.474220 13.281300 0.000000 1.578048 
