Title: Depleted MORB Mantle of Workmann & Hart 2005

Phase Masses:
Pressure Temperature mass liquid_0 olivine_0 garnet_0 orthopyroxene_0 clinopyroxene_0 feldspar_0 spinel_0 
44001.00 1181.94 100.138999 0.000000 59.054041 13.939196 13.712216 12.443066 0.000000 0.990481 
43901.00 1181.77 100.138999 0.000000 59.053609 13.932602 13.718971 12.442798 0.000000 0.991019 
43801.00 1181.60 100.138999 0.000000 59.053175 13.925963 13.725761 12.442539 0.000000 0.991561 
43701.00 1181.43 100.138999 0.000000 59.052738 13.919278 13.732587 12.442289 0.000000 0.992106 
43601.00 1181.26 100.138999 0.000000 59.052297 13.912547 13.739450 12.442050 0.000000 0.992655 
43501.00 1181.09 100.138999 0.000000 59.051854 13.905769 13.746350 12.441820 0.000000 0.993207 
43401.00 1180.92 100.138999 0.000000 59.051407 13.898944 13.753286 12.441599 0.000000 0.993763 
43301.00 1180.75 100.138999 0.000000 59.050957 13.892071 13.760260 12.441389 0.000000 0.994323 
43201.00 1180.59 100.138999 0.000000 59.050504 13.885150 13.767271 12.441189 0.000000 0.994886 
43101.00 1180.42 100.138999 0.000000 59.050047 13.878180 13.774320 12.440999 0.000000 0.995453 
43001.00 1180.25 100.138999 0.000000 59.049587 13.871162 13.781407 12.440819 0.000000 0.996023 
42901.00 1180.08 100.138999 0.000000 59.049124 13.864094 13.788533 12.440650 0.000000 0.996598 
42801.00 1179.91 100.138999 0.000000 59.048657 13.856977 13.795697 12.440491 0.000000 0.997176 
42701.00 1179.74 100.138999 0.000000 59.048187 13.849809 13.802901 12.440343 0.000000 0.997759 
42601.00 1179.57 100.138999 0.000000 59.047713 13.842590 13.810144 12.440206 0.000000 0.998345 
42501.00 1179.41 100.138999 0.000000 59.047236 13.835321 13.817427 12.440080 0.000000 0.998936 
42401.00 1179.24 100.138999 0.000000 59.046755 13.827999 13.824751 12.439964 0.000000 0.999530 
42301.00 1179.07 100.138999 0.000000 59.046270 13.820626 13.832114 12.439860 0.000000 1.000129 
42201.00 1178.90 100.138999 0.000000 59.045782 13.813199 13.839519 12.439767 0.000000 1.000732 
42101.00 1178.73 100.138999 0.000000 59.045290 13.805720 13.846965 12.439685 0.000000 1.001339 
42001.00 1178.56 100.138999 0.000000 59.044794 13.798187 13.854453 12.439615 0.000000 1.001951 
41901.00 1178.39 100.138999 0.000000 59.044294 13.790600 13.861982 12.439556 0.000000 1.002566 
41801.00 1178.22 100.138999 0.000000 59.043790 13.782958 13.869554 12.439510 0.000000 1.003187 
41701.00 1178.05 100.138999 0.000000 59.043282 13.775262 13.877169 12.439475 0.000000 1.003812 
41601.00 1177.89 100.138999 0.000000 59.042771 13.767509 13.884826 12.439452 0.000000 1.004441 
41501.00 1177.72 100.138999 0.000000 59.042255 13.759701 13.892528 12.439441 0.000000 1.005075 
41401.00 1177.55 100.138999 0.000000 59.041734 13.751835 13.900273 12.439443 0.000000 1.005714 
41301.00 1177.38 100.138999 0.000000 59.041210 13.743913 13.908062 12.439457 0.000000 1.006357 
41201.00 1177.21 100.138999 0.000000 59.040682 13.735932 13.915896 12.439484 0.000000 1.007005 
41101.00 1177.04 100.138999 0.000000 59.040149 13.727894 13.923775 12.439523 0.000000 1.007659 
41001.00 1176.87 100.138999 0.000000 59.039611 13.719796 13.931699 12.439576 0.000000 1.008317 
40901.00 1176.70 100.138999 0.000000 59.039069 13.711639 13.939670 12.439641 0.000000 1.008980 
40801.00 1176.53 100.138999 0.000000 59.038523 13.703422 13.947687 12.439720 0.000000 1.009648 
40701.00 1176.37 100.138999 0.000000 59.037972 13.695144 13.955750 12.439811 0.000000 1.010322 
40601.00 1176.20 100.138999 0.000000 59.037416 13.686805 13.963861 12.439917 0.000000 1.011000 
40501.00 1176.03 100.138999 0.000000 59.036856 13.678404 13.972019 12.440036 0.000000 1.011684 
40401.00 1175.86 100.138999 0.000000 59.036291 13.669941 13.980225 12.440169 0.000000 1.012374 
40301.00 1175.69 100.138999 0.000000 59.035721 13.661414 13.988480 12.440315 0.000000 1.013069 
40201.00 1175.52 100.138999 0.000000 59.035146 13.652824 13.996784 12.440476 0.000000 1.013769 
40101.00 1175.35 100.138999 0.000000 59.034566 13.644170 14.005137 12.440651 0.000000 1.014475 
40001.00 1175.18 100.138999 0.000000 59.033980 13.635451 14.013540 12.440841 0.000000 1.015187 
39901.00 1175.01 100.138999 0.000000 59.033390 13.626666 14.021994 12.441045 0.000000 1.015905 
39801.00 1174.84 100.138999 0.000000 59.032794 13.617815 14.030498 12.441264 0.000000 1.016628 
39701.00 1174.67 100.138999 0.000000 59.032193 13.608897 14.039054 12.441498 0.000000 1.017358 
39601.00 1174.50 100.138999 0.000000 59.031587 13.599911 14.047661 12.441747 0.000000 1.018093 
39501.00 1174.34 100.138999 0.000000 59.030975 13.590857 14.056321 12.442011 0.000000 1.018835 
39401.00 1174.17 100.138999 0.000000 59.030358 13.581734 14.065034 12.442291 0.000000 1.019583 
39301.00 1174.00 100.138999 0.000000 59.029734 13.572542 14.073800 12.442586 0.000000 1.020337 
39201.00 1173.83 100.138999 0.000000 59.029106 13.563279 14.082619 12.442897 0.000000 1.021098 
39101.00 1173.66 100.138999 0.000000 59.028471 13.553944 14.091494 12.443225 0.000000 1.021865 
39001.00 1173.49 100.138999 0.000000 59.027830 13.544538 14.100423 12.443568 0.000000 1.022640 
38901.00 1173.32 100.138999 0.000000 59.027183 13.535060 14.109408 12.443928 0.000000 1.023420 
38801.00 1173.15 100.138999 0.000000 59.026530 13.525508 14.118449 12.444304 0.000000 1.024208 
38701.00 1172.98 100.138999 0.000000 59.025871 13.515882 14.127546 12.444697 0.000000 1.025003 
38601.00 1172.81 100.138999 0.000000 59.025205 13.506181 14.136701 12.445108 0.000000 1.025804 
38501.00 1172.64 100.138999 0.000000 59.024533 13.496404 14.145914 12.445535 0.000000 1.026613 
38401.00 1172.47 100.138999 0.000000 59.023855 13.486551 14.155185 12.445980 0.000000 1.027429 
38301.00 1172.30 100.138999 0.000000 59.023169 13.476620 14.164514 12.446442 0.000000 1.028253 
38201.00 1172.13 100.138999 0.000000 59.022477 13.466611 14.173904 12.446922 0.000000 1.029084 
38101.00 1171.96 100.138999 0.000000 59.021779 13.456524 14.183354 12.447420 0.000000 1.029923 
38001.00 1171.79 100.138999 0.000000 59.021073 13.446356 14.192864 12.447937 0.000000 1.030770 
37901.00 1171.62 100.138999 0.000000 59.020360 13.436108 14.202436 12.448472 0.000000 1.031624 
37801.00 1171.45 100.138999 0.000000 59.019639 13.425778 14.212070 12.449025 0.000000 1.032487 
37701.00 1171.28 100.138999 0.000000 59.018912 13.415365 14.221767 12.449597 0.000000 1.033358 
37601.00 1171.11 100.138999 0.000000 59.018177 13.404870 14.231527 12.450189 0.000000 1.034237 
37501.00 1170.94 100.138999 0.000000 59.017434 13.394290 14.241351 12.450800 0.000000 1.035124 
37401.00 1170.77 100.138999 0.000000 59.016684 13.383624 14.251241 12.451430 0.000000 1.036021 
37301.00 1170.60 100.138999 0.000000 59.015925 13.372873 14.261195 12.452080 0.000000 1.036925 
37201.00 1170.43 100.138999 0.000000 59.015159 13.362034 14.271216 12.452750 0.000000 1.037839 
37101.00 1170.26 100.138999 0.000000 59.014385 13.351107 14.281304 12.453441 0.000000 1.038762 
37001.00 1170.09 100.138999 0.000000 59.013602 13.340092 14.291459 12.454152 0.000000 1.039694 
36901.00 1169.92 100.138999 0.000000 59.012811 13.328985 14.301683 12.454884 0.000000 1.040636 
36801.00 1169.75 100.138999 0.000000 59.012011 13.317788 14.311976 12.455637 0.000000 1.041586 
36701.00 1169.58 100.138999 0.000000 59.011203 13.306499 14.322339 12.456411 0.000000 1.042547 
36601.00 1169.41 100.138999 0.000000 59.010385 13.295116 14.332773 12.457207 0.000000 1.043517 
36501.00 1169.24 100.138999 0.000000 59.009559 13.283639 14.343278 12.458025 0.000000 1.044498 
36401.00 1169.07 100.138999 0.000000 59.008723 13.272067 14.353856 12.458865 0.000000 1.045488 
36301.00 1168.90 100.138999 0.000000 59.007878 13.260398 14.364507 12.459727 0.000000 1.046489 
36201.00 1168.73 100.138999 0.000000 59.007024 13.248631 14.375231 12.460612 0.000000 1.047501 
36101.00 1168.56 100.138999 0.000000 59.006159 13.236766 14.386031 12.461520 0.000000 1.048523 
36001.00 1168.39 100.138999 0.000000 59.005285 13.224800 14.396906 12.462451 0.000000 1.049557 
35901.00 1168.22 100.138999 0.000000 59.004401 13.212734 14.407858 12.463405 0.000000 1.050601 
35801.00 1168.05 100.138999 0.000000 59.003507 13.200565 14.418887 12.464384 0.000000 1.051657 
35701.00 1167.88 100.138999 0.000000 59.002602 13.188292 14.429995 12.465386 0.000000 1.052724 
35601.00 1167.71 100.138999 0.000000 59.001686 13.175915 14.441182 12.466413 0.000000 1.053803 
35501.00 1167.54 100.138999 0.000000 59.000760 13.163431 14.452450 12.467465 0.000000 1.054894 
35401.00 1167.37 100.138999 0.000000 58.999822 13.150840 14.463798 12.468542 0.000000 1.055997 
35301.00 1167.20 100.138999 0.000000 58.998873 13.138140 14.475229 12.469644 0.000000 1.057113 
35201.00 1167.02 100.138999 0.000000 58.997913 13.125330 14.486743 12.470772 0.000000 1.058241 
35101.00 1166.85 100.138999 0.000000 58.996941 13.112408 14.498342 12.471926 0.000000 1.059382 
35001.00 1166.68 100.138999 0.000000 58.995957 13.099374 14.510025 12.473107 0.000000 1.060536 
34901.00 1166.51 100.138999 0.000000 58.994961 13.086225 14.521795 12.474314 0.000000 1.061704 
34801.00 1166.34 100.138999 0.000000 58.993953 13.072960 14.533652 12.475548 0.000000 1.062885 
34701.00 1166.17 100.138999 0.000000 58.992932 13.059579 14.545598 12.476810 0.000000 1.064080 
34601.00 1166.00 100.138999 0.000000 58.991898 13.046078 14.557634 12.478099 0.000000 1.065289 
34501.00 1165.83 100.138999 0.000000 58.990851 13.032458 14.569760 12.479417 0.000000 1.066513 
34401.00 1165.66 100.138999 0.000000 58.989791 13.018715 14.581978 12.480763 0.000000 1.067752 
34301.00 1165.48 100.138999 0.000000 58.988717 13.004850 14.594289 12.482139 0.000000 1.069005 
34201.00 1165.31 100.138999 0.000000 58.987629 12.990859 14.606694 12.483543 0.000000 1.070274 
34101.00 1165.14 100.138999 0.000000 58.986527 12.976742 14.619195 12.484977 0.000000 1.071558 
34001.00 1164.97 100.138999 0.000000 58.985410 12.962496 14.631793 12.486442 0.000000 1.072858 
33901.00 1164.80 100.138999 0.000000 58.984279 12.948121 14.644489 12.487936 0.000000 1.074175 
33801.00 1164.63 100.138999 0.000000 58.983132 12.933613 14.657284 12.489462 0.000000 1.075508 
33701.00 1164.45 100.138999 0.000000 58.981970 12.918972 14.670180 12.491019 0.000000 1.076858 
33601.00 1164.28 100.138999 0.000000 58.980793 12.904196 14.683177 12.492608 0.000000 1.078225 
33501.00 1164.11 100.138999 0.000000 58.979599 12.889283 14.696278 12.494230 0.000000 1.079609 
33401.00 1163.94 100.138999 0.000000 58.978389 12.874230 14.709484 12.495883 0.000000 1.081012 
33301.00 1163.77 100.138999 0.000000 58.977162 12.859037 14.722797 12.497570 0.000000 1.082433 
33201.00 1163.59 100.138999 0.000000 58.975918 12.843701 14.736216 12.499291 0.000000 1.083873 
33101.00 1163.42 100.138999 0.000000 58.974657 12.828220 14.749746 12.501046 0.000000 1.085331 
33001.00 1163.25 100.138999 0.000000 58.973378 12.812592 14.763385 12.502835 0.000000 1.086809 
32901.00 1163.08 100.138999 0.000000 58.972080 12.796815 14.777137 12.504659 0.000000 1.088307 
32801.00 1162.91 100.138999 0.000000 58.970765 12.780886 14.791003 12.506519 0.000000 1.089826 
32701.00 1162.73 100.138999 0.000000 58.969430 12.764805 14.804985 12.508415 0.000000 1.091365 
32601.00 1162.56 100.138999 0.000000 58.968075 12.748568 14.819084 12.510347 0.000000 1.092925 
32501.00 1162.39 100.138999 0.000000 58.966701 12.732173 14.833301 12.512317 0.000000 1.094507 
32401.00 1162.22 100.138999 0.000000 58.965307 12.715618 14.847639 12.514324 0.000000 1.096111 
32301.00 1162.04 100.138999 0.000000 58.963892 12.698900 14.862100 12.516370 0.000000 1.097737 
32201.00 1161.87 100.138999 0.000000 58.962456 12.682018 14.876685 12.518454 0.000000 1.099387 
32101.00 1161.70 100.138999 0.000000 58.960998 12.664968 14.891395 12.520577 0.000000 1.101060 
32001.00 1161.52 100.138999 0.000000 58.959518 12.647749 14.906234 12.522741 0.000000 1.102757 
31901.00 1161.35 100.138999 0.000000 58.958016 12.630357 14.921203 12.524945 0.000000 1.104479 
31801.00 1161.18 100.138999 0.000000 58.956490 12.612790 14.936303 12.527190 0.000000 1.106226 
31701.00 1161.00 100.138999 0.000000 58.954941 12.595045 14.951538 12.529476 0.000000 1.107999 
31601.00 1160.83 100.138999 0.000000 58.953367 12.577120 14.966908 12.531806 0.000000 1.109798 
31501.00 1160.66 100.138999 0.000000 58.951769 12.559011 14.982416 12.534178 0.000000 1.111625 
31401.00 1160.48 100.138999 0.000000 58.950145 12.540716 14.998065 12.536594 0.000000 1.113478 
31301.00 1160.31 100.138999 0.000000 58.948496 12.522233 15.013856 12.539054 0.000000 1.115360 
31201.00 1160.14 100.138999 0.000000 58.946820 12.503557 15.029792 12.541560 0.000000 1.117271 
31101.00 1159.96 100.138999 0.000000 58.945117 12.484686 15.045875 12.544111 0.000000 1.119211 
31001.00 1159.79 100.138999 0.000000 58.943386 12.465616 15.062108 12.546708 0.000000 1.121181 
30901.00 1159.62 100.138999 0.000000 58.941627 12.446345 15.078492 12.549353 0.000000 1.123182 
30801.00 1159.44 100.138999 0.000000 58.939838 12.426869 15.095031 12.552046 0.000000 1.125215 
30701.00 1159.27 100.138999 0.000000 58.938020 12.407185 15.111726 12.554788 0.000000 1.127280 
30601.00 1159.09 100.138999 0.000000 58.936171 12.387289 15.128582 12.557579 0.000000 1.129378 
30501.00 1158.92 100.138999 0.000000 58.934291 12.367178 15.145599 12.560420 0.000000 1.131510 
30401.00 1158.74 100.138999 0.000000 58.932379 12.346848 15.162782 12.563313 0.000000 1.133677 
30301.00 1158.57 100.138999 0.000000 58.930434 12.326296 15.180132 12.566258 0.000000 1.135879 
30201.00 1158.39 100.138999 0.000000 58.928456 12.305517 15.197653 12.569256 0.000000 1.138118 
30101.00 1158.22 100.138999 0.000000 58.926443 12.284508 15.215348 12.572307 0.000000 1.140394 
30001.00 1158.04 100.138999 0.000000 58.924394 12.263264 15.233219 12.575413 0.000000 1.142708 
29901.00 1157.87 100.138999 0.000000 58.922310 12.241782 15.251271 12.578575 0.000000 1.145062 
29801.00 1157.69 100.138999 0.000000 58.920188 12.220057 15.269505 12.581793 0.000000 1.147455 
29701.00 1157.52 100.138999 0.000000 58.918029 12.198085 15.287926 12.585069 0.000000 1.149890 
29601.00 1157.34 100.138999 0.000000 58.915830 12.175862 15.306537 12.588403 0.000000 1.152367 
29501.00 1157.17 100.138999 0.000000 58.913591 12.153383 15.325340 12.591797 0.000000 1.154887 
29401.00 1156.99 100.138999 0.000000 58.911311 12.130643 15.344341 12.595252 0.000000 1.157452 
29301.00 1156.82 100.138999 0.000000 58.908990 12.107638 15.363542 12.598768 0.000000 1.160062 
29201.00 1156.64 100.138999 0.000000 58.906625 12.084363 15.382946 12.602347 0.000000 1.162719 
29101.00 1156.46 100.138999 0.000000 58.904215 12.060812 15.402559 12.605990 0.000000 1.165423 
29001.00 1156.29 100.138999 0.000000 58.901760 12.036981 15.422384 12.609697 0.000000 1.168177 
28901.00 1156.11 100.138999 0.000000 58.899259 12.012864 15.442424 12.613472 0.000000 1.170980 
28801.00 1155.94 100.138999 0.000000 58.896710 11.988455 15.462685 12.617313 0.000000 1.173836 
28701.00 1155.76 100.138999 0.000000 58.894111 11.963750 15.483170 12.621223 0.000000 1.176745 
28601.00 1155.58 100.138999 0.000000 58.891462 11.938742 15.503884 12.625204 0.000000 1.179708 
28501.00 1155.40 100.138999 0.000000 58.888761 11.913426 15.524831 12.629255 0.000000 1.182726 
28401.00 1155.23 100.138999 0.000000 58.886007 11.887795 15.546015 12.633379 0.000000 1.185803 
28301.00 1155.05 100.138999 0.000000 58.883198 11.861843 15.567443 12.637577 0.000000 1.188938 
28201.00 1154.87 100.138999 0.000000 58.880334 11.835564 15.589118 12.641851 0.000000 1.192133 
28101.00 1154.70 100.138999 0.000000 58.877411 11.808951 15.611045 12.646202 0.000000 1.195391 
28001.00 1154.52 100.138999 0.000000 58.874429 11.781997 15.633230 12.650630 0.000000 1.198712 
27901.00 1154.34 100.138999 0.000000 58.871386 11.754696 15.655679 12.655139 0.000000 1.202099 
27801.00 1154.16 100.138999 0.000000 58.868281 11.727039 15.678396 12.659730 0.000000 1.205553 
27701.00 1153.98 100.138999 0.000000 58.865111 11.699021 15.701387 12.664403 0.000000 1.209077 
27601.00 1153.80 100.138999 0.000000 58.861876 11.670633 15.724658 12.669162 0.000000 1.212671 
27501.00 1153.63 100.138999 0.000000 58.858572 11.641868 15.748214 12.674006 0.000000 1.216339 
27401.00 1153.45 100.138999 0.000000 58.855198 11.612717 15.772063 12.678940 0.000000 1.220081 
27301.00 1153.27 100.138999 0.000000 58.851753 11.583172 15.796210 12.683963 0.000000 1.223901 
27201.00 1153.09 100.138999 0.000000 58.848233 11.553225 15.820663 12.689078 0.000000 1.227800 
27101.00 1152.91 100.138999 0.000000 58.844638 11.522867 15.845426 12.694287 0.000000 1.231781 
27001.00 1152.73 100.138999 0.000000 58.840965 11.492089 15.870508 12.699592 0.000000 1.235845 
26901.00 1152.55 100.138999 0.000000 58.837211 11.460882 15.895915 12.704995 0.000000 1.239996 
26801.00 1152.37 100.138999 0.000000 58.833374 11.429235 15.921655 12.710498 0.000000 1.244236 
26701.00 1152.19 100.138999 0.000000 58.829452 11.397141 15.947736 12.716103 0.000000 1.248567 
26601.00 1152.01 100.138999 0.000000 58.825443 11.364588 15.974164 12.721813 0.000000 1.252992 
26501.00 1151.83 100.138999 0.000000 58.821343 11.331565 16.000948 12.727629 0.000000 1.257513 
26401.00 1151.65 100.138999 0.000000 58.817151 11.298063 16.028096 12.733554 0.000000 1.262134 
26301.00 1151.47 100.138999 0.000000 58.812863 11.264071 16.055617 12.739590 0.000000 1.266857 
26201.00 1151.29 100.138999 0.000000 58.808478 11.229576 16.083519 12.745741 0.000000 1.271686 
26101.00 1151.10 100.138999 0.000000 58.803990 11.194568 16.111811 12.752008 0.000000 1.276623 
26001.00 1150.92 100.138999 0.000000 58.799399 11.159034 16.140502 12.758394 0.000000 1.281671 
25901.00 1150.74 100.138999 0.000000 58.794701 11.122961 16.169601 12.764901 0.000000 1.286834 
25801.00 1150.56 100.138999 0.000000 58.789892 11.086338 16.199120 12.771534 0.000000 1.292116 
25701.00 1150.38 100.138999 0.000000 58.784969 11.049151 16.229066 12.778293 0.000000 1.297519 
25601.00 1150.19 100.138999 0.000000 58.779930 11.011387 16.259452 12.785184 0.000000 1.303047 
25501.00 1150.01 100.138999 0.000000 58.774770 10.973031 16.290286 12.792208 0.000000 1.308704 
25401.00 1149.83 100.138999 0.000000 58.769485 10.934070 16.321582 12.799368 0.000000 1.314494 
25301.00 1149.64 100.138999 0.000000 58.764073 10.894488 16.353348 12.806668 0.000000 1.320421 
25201.00 1149.46 100.138999 0.000000 58.758529 10.854271 16.385598 12.814112 0.000000 1.326489 
25101.00 1149.27 100.138999 0.000000 58.752849 10.813402 16.418343 12.821702 0.000000 1.332702 
25001.00 1149.09 100.138999 0.000000 58.747030 10.771866 16.451596 12.829443 0.000000 1.339064 
24901.00 1148.90 100.138999 0.000000 58.741067 10.729646 16.485369 12.837337 0.000000 1.345580 
24801.00 1148.72 100.138999 0.000000 58.734955 10.686726 16.519674 12.845389 0.000000 1.352255 
24701.00 1148.53 100.138999 0.000000 58.728690 10.643087 16.554527 12.853603 0.000000 1.359093 
24601.00 1148.35 100.138999 0.000000 58.722268 10.598711 16.589939 12.861982 0.000000 1.366099 
24501.00 1148.16 100.138999 0.000000 58.715684 10.553580 16.625926 12.870531 0.000000 1.373278 
24401.00 1147.98 100.138999 0.000000 58.708933 10.507674 16.662503 12.879254 0.000000 1.380635 
24301.00 1147.79 100.138999 0.000000 58.702009 10.460974 16.699683 12.888155 0.000000 1.388177 
24201.00 1147.60 100.138999 0.000000 58.694909 10.413460 16.737483 12.897239 0.000000 1.395908 
24101.00 1147.41 100.138999 0.000000 58.687625 10.365111 16.775919 12.906511 0.000000 1.403834 
24001.00 1147.23 100.138999 0.000000 58.680153 10.315904 16.815006 12.915975 0.000000 1.411961 
23901.00 1147.04 100.138999 0.000000 58.672487 10.265818 16.854763 12.925636 0.000000 1.420295 
23801.00 1146.85 100.138999 0.000000 58.664621 10.214831 16.895205 12.935500 0.000000 1.428842 
23701.00 1146.66 100.138999 0.000000 58.656549 10.162918 16.936352 12.945571 0.000000 1.437609 
