Title: Depleted MORB Mantle of Workmann & Hart 2005

Liquid Composition:
Pressure Temperature mass SiO2 TiO2 Al2O3 Fe2O3 Cr2O3 FeO MnO MgO NiO CaO Na2O 
44001.00 1333.49 0.000000 ---
43901.00 1333.29 0.000000 ---
43801.00 1333.10 0.000000 ---
43701.00 1332.90 0.000000 ---
43601.00 1332.71 0.000000 ---
43501.00 1332.51 0.000000 ---
43401.00 1332.31 0.000000 ---
43301.00 1332.12 0.000000 ---
43201.00 1331.92 0.000000 ---
43101.00 1331.72 0.000000 ---
43001.00 1331.53 0.000000 ---
42901.00 1331.33 0.000000 ---
42801.00 1331.13 0.000000 ---
42701.00 1330.94 0.000000 ---
42601.00 1330.74 0.000000 ---
42501.00 1330.54 0.000000 ---
42401.00 1330.35 0.000000 ---
42301.00 1330.15 0.000000 ---
42201.00 1329.95 0.000000 ---
42101.00 1329.75 0.000000 ---
42001.00 1329.56 0.000000 ---
41901.00 1329.36 0.000000 ---
41801.00 1329.16 0.000000 ---
41701.00 1328.97 0.000000 ---
41601.00 1328.77 0.000000 ---
41501.00 1328.57 0.000000 ---
41401.00 1328.38 0.000000 ---
41301.00 1328.18 0.000000 ---
41201.00 1327.98 0.000000 ---
41101.00 1327.78 0.000000 ---
41001.00 1327.59 0.000000 ---
40901.00 1327.39 0.000000 ---
40801.00 1327.19 0.000000 ---
40701.00 1326.99 0.000000 ---
40601.00 1326.80 0.000000 ---
40501.00 1326.60 0.000000 ---
40401.00 1326.40 0.000000 ---
40301.00 1326.20 0.000000 ---
40201.00 1326.01 0.000000 ---
40101.00 1325.81 0.000000 ---
40001.00 1325.61 0.000000 ---
39901.00 1325.41 0.000000 ---
39801.00 1325.22 0.000000 ---
39701.00 1325.02 0.000000 ---
39601.00 1324.82 0.000000 ---
39501.00 1324.62 0.000000 ---
39401.00 1324.42 0.000000 ---
39301.00 1324.23 0.000000 ---
39201.00 1324.03 0.000000 ---
39101.00 1323.83 0.000000 ---
39001.00 1323.63 0.000000 ---
38901.00 1323.43 0.000000 ---
38801.00 1323.24 0.000000 ---
38701.00 1323.04 0.000000 ---
38601.00 1322.84 0.000000 ---
38501.00 1322.64 0.000000 ---
38401.00 1322.44 0.000000 ---
38301.00 1322.24 0.000000 ---
38201.00 1322.05 0.000000 ---
38101.00 1321.85 0.000000 ---
38001.00 1321.65 0.000000 ---
37901.00 1321.45 0.000000 ---
37801.00 1321.25 0.000000 ---
37701.00 1321.05 0.000000 ---
37601.00 1320.85 0.000000 ---
37501.00 1320.65 0.000000 ---
37401.00 1320.45 0.000000 ---
37301.00 1320.26 0.000000 ---
37201.00 1320.06 0.000000 ---
37101.00 1319.86 0.000000 ---
37001.00 1319.66 0.000000 ---
36901.00 1319.46 0.000000 ---
36801.00 1319.26 0.000000 ---
36701.00 1319.06 0.000000 ---
36601.00 1318.86 0.000000 ---
36501.00 1318.66 0.000000 ---
36401.00 1318.46 0.000000 ---
36301.00 1318.26 0.000000 ---
36201.00 1318.06 0.000000 ---
36101.00 1317.86 0.000000 ---
36001.00 1317.66 0.000000 ---
35901.00 1317.46 0.000000 ---
35801.00 1317.26 0.000000 ---
35701.00 1317.06 0.000000 ---
35601.00 1316.86 0.000000 ---
35501.00 1316.66 0.000000 ---
35401.00 1316.46 0.000000 ---
35301.00 1316.26 0.000000 ---
35201.00 1316.06 0.000000 ---
35101.00 1315.86 0.000000 ---
35001.00 1315.66 0.000000 ---
34901.00 1315.45 0.000000 ---
34801.00 1315.25 0.000000 ---
34701.00 1315.05 0.000000 ---
34601.00 1314.85 0.000000 ---
34501.00 1314.65 0.000000 ---
34401.00 1314.45 0.000000 ---
34301.00 1314.25 0.000000 ---
34201.00 1314.04 0.000000 ---
34101.00 1313.84 0.000000 ---
34001.00 1313.64 0.000000 ---
33901.00 1313.44 0.000000 ---
33801.00 1313.24 0.000000 ---
33701.00 1313.03 0.000000 ---
33601.00 1312.83 0.000000 ---
33501.00 1312.63 0.000000 ---
33401.00 1312.43 0.000000 ---
33301.00 1312.22 0.000000 ---
33201.00 1312.02 0.000000 ---
33101.00 1311.82 0.000000 ---
33001.00 1311.61 0.000000 ---
32901.00 1311.41 0.000000 ---
32801.00 1311.21 0.000000 ---
32701.00 1311.00 0.000000 ---
32601.00 1310.80 0.000000 ---
32501.00 1310.60 0.000000 ---
32401.00 1310.39 0.000000 ---
32301.00 1310.19 0.000000 ---
32201.00 1309.99 0.000000 ---
32101.00 1309.78 0.000000 ---
32001.00 1309.58 0.000000 ---
31901.00 1309.37 0.000000 ---
31801.00 1309.17 0.000000 ---
31701.00 1308.96 0.000000 ---
31601.00 1308.76 0.000000 ---
31501.00 1308.55 0.000000 ---
31401.00 1308.35 0.000000 ---
31301.00 1308.14 0.000000 ---
31201.00 1307.93 0.000000 ---
31101.00 1307.73 0.000000 ---
31001.00 1307.52 0.000000 ---
30901.00 1307.32 0.000000 ---
30801.00 1307.11 0.000000 ---
30701.00 1306.90 0.000000 ---
30601.00 1306.70 0.000000 ---
30501.00 1306.49 0.000000 ---
30401.00 1306.28 0.000000 ---
30301.00 1306.07 0.000000 ---
30201.00 1305.87 0.000000 ---
30101.00 1305.66 0.000000 ---
30001.00 1305.45 0.000000 ---
29901.00 1305.24 0.000000 ---
29801.00 1305.03 0.000000 ---
29701.00 1304.83 0.000000 ---
29601.00 1304.62 0.000000 ---
29501.00 1304.41 0.000000 ---
29401.00 1304.20 0.000000 ---
29301.00 1303.99 0.000000 ---
29201.00 1303.78 0.000000 ---
29101.00 1303.57 0.000000 ---
29001.00 1303.36 0.000000 ---
28901.00 1303.15 0.000000 ---
28801.00 1302.94 0.000000 ---
28701.00 1302.73 0.000000 ---
28601.00 1302.51 0.000000 ---
28501.00 1302.30 0.000000 ---
28401.00 1302.09 0.000000 ---
28301.00 1301.88 0.000000 ---
28201.00 1301.67 0.000000 ---
28101.00 1301.45 0.000000 ---
28001.00 1301.24 0.000000 ---
27901.00 1301.03 0.000000 ---
27801.00 1300.81 0.000000 ---
27701.00 1300.60 0.000000 ---
27601.00 1300.38 0.000000 ---
27501.00 1300.17 0.000000 ---
27401.00 1299.96 0.000000 ---
27301.00 1299.74 0.000000 ---
27201.00 1299.52 0.000000 ---
27101.00 1299.31 0.000000 ---
27001.00 1299.09 0.000000 ---
26901.00 1298.87 0.000000 ---
26801.00 1298.66 0.000000 ---
26701.00 1298.44 0.000000 ---
26601.00 1298.22 0.000000 ---
26501.00 1298.00 0.000000 ---
26401.00 1297.79 0.000000 ---
26301.00 1297.57 0.000000 ---
26201.00 1297.35 0.000000 ---
26101.00 1297.13 0.000000 ---
26001.00 1296.91 0.000000 ---
25901.00 1296.69 0.000000 ---
25801.00 1296.46 0.000000 ---
25701.00 1296.24 0.000000 ---
25601.00 1296.02 0.000000 ---
25501.00 1295.80 0.000000 ---
25401.00 1295.57 0.000000 ---
25301.00 1295.35 0.000000 ---
25201.00 1295.13 0.000000 ---
25101.00 1294.90 0.000000 ---
25001.00 1294.68 0.000000 ---
24901.00 1294.45 0.000000 ---
24801.00 1294.22 0.000000 ---
24701.00 1294.00 0.000000 ---
24601.00 1293.77 0.000000 ---
24501.00 1293.54 0.000000 ---
24401.00 1293.31 0.000000 ---
24301.00 1293.08 0.000000 ---
24201.00 1292.85 0.000000 ---
24101.00 1292.62 0.000000 ---
24001.00 1292.39 0.000000 ---
23901.00 1292.16 0.000000 ---
23801.00 1291.93 0.000000 ---
23701.00 1291.69 0.000000 ---
23601.00 1291.46 0.000000 ---
23501.00 1291.22 0.000000 ---
23401.00 1290.99 0.000000 ---
23301.00 1290.75 0.000000 ---
23201.00 1290.51 0.000000 ---
23101.00 1290.28 0.000000 ---
23001.00 1290.04 0.000000 ---
22901.00 1289.80 0.000000 ---
22801.00 1289.56 0.000000 ---
22701.00 1289.31 0.000000 ---
22601.00 1289.07 0.000000 ---
22501.00 1288.83 0.000000 ---
22401.00 1288.58 0.000000 ---
22301.00 1288.34 0.000000 ---
22201.00 1288.09 0.000000 ---
22101.00 1287.84 0.000000 ---
22001.00 1287.59 0.000000 ---
21901.00 1287.34 0.000000 ---
21801.00 1287.09 0.000000 ---
21701.00 1286.84 0.000000 ---
21601.00 1286.58 0.000000 ---
21501.00 1286.33 0.000000 ---
21401.00 1286.07 0.000000 ---
21301.00 1285.81 0.000000 ---
21201.00 1285.55 0.000000 ---
21101.00 1285.29 0.000000 ---
21001.00 1285.03 0.000000 ---
20901.00 1284.76 0.000000 ---
20801.00 1284.50 0.000000 ---
20701.00 1284.23 0.000000 ---
20601.00 1283.96 0.000000 ---
20501.00 1283.69 0.000000 ---
20401.00 1283.41 0.000000 ---
20301.00 1283.14 0.000000 ---
20201.00 1282.86 0.000000 ---
20101.00 1282.58 0.000000 ---
20001.00 1282.30 0.000000 ---
19901.00 1282.02 0.000000 ---
19801.00 1281.73 0.000000 ---
19701.00 1281.44 0.000000 ---
19601.00 1281.15 0.000000 ---
19501.00 1280.85 0.000000 ---
19401.00 1280.56 0.000000 ---
19301.00 1280.25 0.000000 ---
19201.00 1279.95 0.000000 ---
19101.00 1279.64 0.000000 ---
19001.00 1279.33 0.000000 ---
18901.00 1279.02 0.000000 ---
18801.00 1278.84 0.000000 ---
18701.00 1278.66 0.000000 ---
18601.00 1278.47 0.000000 ---
18501.00 1278.29 0.000000 ---
18401.00 1278.11 0.000000 ---
18301.00 1277.92 0.000000 ---
18201.00 1277.74 0.000000 ---
18101.00 1277.56 0.000000 ---
18001.00 1277.38 0.000000 ---
17901.00 1277.19 0.000000 ---
17801.00 1277.01 0.000000 ---
17701.00 1276.83 0.000000 ---
17601.00 1276.64 0.000000 ---
17501.00 1276.46 0.000000 ---
17401.00 1276.28 0.000000 ---
17301.00 1276.10 0.000000 ---
17201.00 1275.91 0.000000 ---
17101.00 1275.73 0.000000 ---
17001.00 1275.55 0.000000 ---
16901.00 1275.37 0.000000 ---
16801.00 1275.18 0.000000 ---
16701.00 1275.00 0.000000 ---
16601.00 1274.82 0.000000 ---
16501.00 1274.63 0.000000 ---
16401.00 1274.45 0.000000 ---
16301.00 1274.27 0.000000 ---
16201.00 1274.09 0.000000 ---
16101.00 1273.90 0.000000 ---
16001.00 1273.72 0.000000 ---
15901.00 1273.54 0.000000 ---
15801.00 1273.36 0.000000 ---
15701.00 1273.17 0.000000 ---
15601.00 1272.99 0.000000 ---
15501.00 1272.81 0.000000 ---
15401.00 1272.62 0.000000 ---
15301.00 1272.44 0.000000 ---
15201.00 1272.26 0.000000 ---
15101.00 1272.08 0.000000 ---
15001.00 1271.89 0.000000 ---
14901.00 1271.71 0.000000 ---
14801.00 1271.53 0.000000 ---
14701.00 1271.34 0.000000 ---
14601.00 1271.16 0.000000 ---
14501.00 1270.98 0.000000 ---
14401.00 1270.80 0.000000 ---
14301.00 1270.61 0.000000 ---
14201.00 1270.43 0.000000 ---
14101.00 1270.25 0.000000 ---
14001.00 1270.06 0.000000 ---
13901.00 1269.88 0.000000 ---
13801.00 1269.70 0.000000 ---
13701.00 1269.52 0.000000 ---
13601.00 1269.33 0.000000 ---
13501.00 1269.15 0.000000 ---
13401.00 1268.97 0.000000 ---
13301.00 1268.78 0.000000 ---
13201.00 1268.60 0.000000 ---
13101.00 1268.42 0.000000 ---
13001.00 1268.24 0.000000 ---
12901.00 1268.05 0.000000 ---
12801.00 1267.87 0.000000 ---
12701.00 1267.69 0.000000 ---
12601.00 1267.50 0.000000 ---
12501.00 1267.32 0.000000 ---
12401.00 1267.14 0.000000 ---
12301.00 1266.95 0.000000 ---
12201.00 1266.65 0.032681 52.6384 0.633802 18.6589 0.0859825 0.298967 4.26011 0.0152839 8.10313 0.0083595 4.23892 11.0582
12101.00 1266.31 0.071967 52.697 0.632785 18.6698 0.0872196 0.294198 4.25323 0.01508 8.10347 0.00824478 4.29182 10.9471
12001.00 1265.98 0.111891 52.7551 0.631812 18.6804 0.088489 0.289469 4.24656 0.0148776 8.1041 0.00813094 4.34558 10.8355
11901.00 1265.65 0.152479 52.8125 0.630882 18.6907 0.089792 0.284779 4.24009 0.0146767 8.10501 0.00801799 4.40022 10.7233
11801.00 1265.31 0.193757 52.8694 0.629996 18.7006 0.0911296 0.280129 4.23383 0.0144773 8.1062 0.00790592 4.45576 10.6106
11701.00 1264.97 0.235753 52.9255 0.629154 18.7102 0.0925033 0.275518 4.22779 0.0142794 8.10769 0.00779474 4.51222 10.4973
11601.00 1264.63 0.278495 52.981 0.628358 18.7194 0.0939142 0.270948 4.22196 0.0140829 8.10946 0.00768444 4.5696 10.3835
11501.00 1264.29 0.322015 53.0358 0.627607 18.7283 0.0953639 0.266418 4.21635 0.013888 8.11153 0.00757502 4.62794 10.2692
11401.00 1263.94 0.366345 53.0898 0.626902 18.7369 0.0968537 0.261928 4.21096 0.0136945 8.1139 0.00746648 4.68724 10.1543
11301.00 1263.60 0.411518 53.1432 0.626244 18.7451 0.0983852 0.257479 4.2058 0.0135025 8.11656 0.00735882 4.74753 10.0389
11201.00 1263.25 0.457571 53.1958 0.625632 18.7529 0.0999599 0.253071 4.20087 0.013312 8.11953 0.00725203 4.80882 9.92293
11101.00 1262.90 0.504542 53.2475 0.625068 18.7603 0.101579 0.248703 4.19617 0.0131229 8.12279 0.00714612 4.87114 9.80642
11001.00 1262.55 0.552469 53.2985 0.624552 18.7674 0.103246 0.244377 4.1917 0.0129353 8.12636 0.00704107 4.9345 9.68937
10901.00 1262.19 0.601396 53.3487 0.624084 18.7741 0.10496 0.240093 4.18747 0.0127492 8.13023 0.00693689 4.99891 9.57177
10801.00 1261.83 0.651367 53.3981 0.623665 18.7804 0.106725 0.23585 4.18348 0.0125646 8.13441 0.00683358 5.0644 9.45364
10701.00 1261.47 0.702427 53.4465 0.623295 18.7863 0.108541 0.231649 4.17973 0.0123814 8.13889 0.00673114 5.13099 9.33498
10601.00 1261.11 0.754628 53.4941 0.622975 18.7918 0.110412 0.22749 4.17622 0.0121997 8.14368 0.00662956 5.19869 9.21578
10501.00 1260.74 0.808021 53.5408 0.622705 18.7969 0.112339 0.223374 4.17296 0.0120194 8.14878 0.00652883 5.26752 9.09606
10401.00 1260.37 0.862661 53.5866 0.622485 18.8016 0.114325 0.219301 4.16995 0.0118406 8.15417 0.00642897 5.33751 8.97581
10301.00 1260.00 0.918606 53.6315 0.622315 18.8058 0.116371 0.215271 4.16719 0.0116633 8.15987 0.00632996 5.40866 8.85505
10201.00 1259.62 0.975919 53.6753 0.622197 18.8097 0.11848 0.211284 4.16468 0.0114874 8.16587 0.0062318 5.48099 8.73378
10101.00 1259.24 1.034664 53.7182 0.622129 18.8131 0.120654 0.207341 4.16242 0.011313 8.17216 0.00613449 5.55452 8.612
10001.00 1258.86 1.060820 53.76 0.622118 18.8161 0.122897 0.203434 4.16046 0.01114 8.17881 0.00603805 5.62936 8.48961
9901.00 1258.47 1.060899 53.8007 0.622167 18.8187 0.125211 0.199556 4.15885 0.0109685 8.18587 0.00594248 5.70559 8.36651
9801.00 1258.09 1.060996 53.8401 0.622278 18.8208 0.127599 0.195707 4.15758 0.0107985 8.19334 0.00584779 5.78324 8.2427
9701.00 1257.70 1.061112 53.8783 0.622452 18.8225 0.130064 0.191888 4.15667 0.01063 8.20122 0.00575398 5.86235 8.11817
9601.00 1257.31 1.061248 53.9153 0.62269 18.8237 0.132611 0.188099 4.15613 0.010463 8.20952 0.00566103 5.94294 7.99292
9501.00 1256.92 1.061406 53.9509 0.622995 18.8245 0.135241 0.18434 4.15596 0.0102974 8.21824 0.00556894 6.02505 7.86694
9401.00 1256.52 1.061586 53.9852 0.623366 18.8248 0.137959 0.180612 4.15616 0.0101333 8.22738 0.00547771 6.10872 7.74024
9301.00 1256.13 1.061789 54.0181 0.623806 18.8246 0.140768 0.176915 4.15675 0.00997058 8.23695 0.00538734 6.19396 7.61281
9201.00 1255.73 1.062019 54.0496 0.624317 18.8239 0.143672 0.173248 4.15774 0.00980935 8.24694 0.00529782 6.28082 7.48466
9101.00 1255.33 1.062275 54.0796 0.624899 18.8228 0.146676 0.169614 4.15912 0.00964957 8.25735 0.00520915 6.36933 7.35578
9001.00 1254.92 1.062559 54.1082 0.625554 18.8211 0.149783 0.166011 4.16091 0.00949123 8.26819 0.00512133 6.45952 7.22617
8901.00 1254.52 1.062874 54.1352 0.626283 18.8189 0.152998 0.162441 4.16311 0.00933432 8.27945 0.00503434 6.55142 7.09583
8801.00 1254.11 1.063221 54.1606 0.627088 18.8162 0.156325 0.158904 4.16574 0.00917884 8.29114 0.0049482 6.64506 6.96478
8701.00 1253.70 1.063602 54.1845 0.627971 18.813 0.15977 0.1554 4.16879 0.00902478 8.30324 0.00486288 6.74048 6.83301
8601.00 1253.29 1.064020 54.2067 0.628932 18.8092 0.163337 0.151929 4.17227 0.00887214 8.31576 0.00477839 6.8377 6.70053
8501.00 1252.87 1.064476 54.2273 0.629973 18.8048 0.167032 0.148493 4.17618 0.00872091 8.32868 0.00469473 6.93676 6.56735
8401.00 1252.45 1.064972 54.2461 0.631095 18.8 0.17086 0.145092 4.18054 0.00857109 8.34201 0.00461189 7.03768 6.43347
8301.00 1252.02 1.065513 54.2632 0.6323 18.7945 0.174825 0.141726 4.18535 0.00842266 8.35574 0.00452987 7.1405 6.29891
8201.00 1251.60 1.066100 54.2785 0.633588 18.7885 0.178936 0.138396 4.19061 0.00827564 8.36985 0.00444866 7.24523 6.16368
8101.00 1251.16 1.066737 54.292 0.634962 18.7818 0.183196 0.135102 4.19632 0.00813 8.38434 0.00436826 7.3519 6.02779
8001.00 1250.73 1.067426 54.3037 0.636421 18.7746 0.187612 0.131846 4.20249 0.00798575 8.39919 0.00428867 7.46054 5.89127
7901.00 1250.29 1.068172 54.3135 0.637966 18.7668 0.192191 0.128627 4.20912 0.00784289 8.41439 0.00420988 7.57116 5.75413
7801.00 1249.85 1.068978 54.3215 0.639599 18.7584 0.196939 0.125447 4.21621 0.0077014 8.42992 0.00413189 7.68378 5.6164
7701.00 1249.40 1.069849 54.3275 0.641319 18.7494 0.201863 0.122307 4.22375 0.00756129 8.44577 0.00405469 7.79841 5.4781
7601.00 1248.95 1.070788 54.3316 0.643126 18.7397 0.206969 0.119206 4.23175 0.00742255 8.46191 0.0039783 7.91506 5.33927
7501.00 1248.49 1.071801 54.3337 0.645022 18.7294 0.212264 0.116147 4.24021 0.00728519 8.47832 0.00390269 8.03375 5.19993
7401.00 1248.02 1.072893 54.3339 0.647005 18.7185 0.217754 0.11313 4.2491 0.00714919 8.49498 0.00382788 8.15447 5.06013
7301.00 1247.56 1.074070 54.3322 0.649074 18.707 0.223448 0.110155 4.25844 0.00701456 8.51184 0.00375385 8.27721 4.9199
7201.00 1247.08 1.075337 54.3284 0.651229 18.6948 0.229352 0.107225 4.2682 0.00688129 8.5289 0.00368061 8.40197 4.77929
7101.00 1246.60 1.076701 54.3228 0.653468 18.682 0.235472 0.104339 4.27838 0.00674939 8.5461 0.00360815 8.52873 4.63836
7001.00 1246.11 1.078169 54.3152 0.655789 18.6686 0.241815 0.1015 4.28897 0.00661886 8.56341 0.00353649 8.65748 4.49716
6901.00 1245.62 1.079750 54.3056 0.658189 18.6545 0.248388 0.0987074 4.29993 0.00648969 8.58078 0.0034656 8.78817 4.35574
6801.00 1245.11 1.081450 54.2942 0.660664 18.6398 0.255197 0.0959633 4.31126 0.0063619 8.59818 0.0033955 8.92078 4.21419
6701.00 1244.60 1.083281 54.281 0.663212 18.6244 0.262248 0.0932687 4.32293 0.00623549 8.61556 0.00332619 9.05525 4.07256
6601.00 1244.09 1.085251 54.2659 0.665826 18.6085 0.269546 0.0906248 4.33491 0.00611046 8.63285 0.00325767 9.19152 3.93095
6501.00 1243.56 1.087372 54.2491 0.668501 18.5919 0.277096 0.0880331 4.34717 0.00598682 8.65001 0.00318994 9.32954 3.78942
6401.00 1243.02 1.089654 54.2307 0.67123 18.5748 0.284903 0.0854948 4.35967 0.00586457 8.66697 0.003123 9.46922 3.64809
6301.00 1242.48 1.092112 54.2106 0.674006 18.557 0.292971 0.0830113 4.37237 0.00574373 8.68367 0.00305686 9.61047 3.50705
6201.00 1241.92 1.094760 54.1891 0.676818 18.5387 0.3013 0.0805842 4.38523 0.00562431 8.70004 0.00299152 9.75319 3.3664
6101.00 1241.35 1.097611 54.1663 0.679656 18.5198 0.309894 0.0782148 4.39819 0.00550631 8.71601 0.00292699 9.89726 3.22626
6001.00 1240.77 1.100684 54.1422 0.682508 18.5004 0.318753 0.0759047 4.4112 0.00538977 8.73149 0.00286327 10.0426 3.08675
5901.00 1240.18 1.103996 54.1171 0.685359 18.4804 0.327875 0.0736554 4.42418 0.00527468 8.74642 0.00280037 10.1889 2.94801
5801.00 1239.57 1.107567 54.0911 0.688195 18.46 0.337258 0.0714686 4.43709 0.00516108 8.7607 0.00273831 10.3362 2.81017
5701.00 1238.95 1.111419 54.0644 0.690997 18.439 0.346897 0.0693459 4.44983 0.00504898 8.77425 0.00267708 10.4842 2.67338
5601.00 1238.31 1.115575 54.0372 0.693745 18.4177 0.356787 0.0672889 4.46232 0.0049384 8.78697 0.0026167 10.6327 2.5378
5501.00 1237.66 1.120060 54.0097 0.696417 18.3959 0.36692 0.0652995 4.47448 0.00482937 8.79878 0.00255719 10.7815 2.40359
5401.00 1236.99 1.124903 53.9823 0.698988 18.3737 0.377283 0.0633795 4.4862 0.00472193 8.80957 0.00249855 10.9304 2.27093
5301.00 1236.30 1.130131 53.9552 0.70143 18.3512 0.387865 0.0615306 4.49738 0.00461609 8.81925 0.0024408 11.0791 2.14
5201.00 1235.59 1.135776 53.9287 0.703713 18.3283 0.39865 0.0597547 4.50792 0.0045119 8.82772 0.00238396 11.2274 2.01099
5101.00 1234.86 1.141871 53.9031 0.705802 18.3052 0.409619 0.058054 4.51768 0.0044094 8.83486 0.00232804 11.3748 1.88412
5001.00 1234.10 1.148451 53.879 0.707659 18.2817 0.42075 0.0564305 4.52653 0.00430861 8.84058 0.00227307 11.5212 1.75958
4901.00 1233.32 1.155551 53.8566 0.709246 18.258 0.432019 0.0548864 4.53435 0.0042096 8.84478 0.00221906 11.6661 1.63761
4801.00 1232.51 1.163204 53.8364 0.710515 18.2341 0.443397 0.0534241 4.54098 0.00411241 8.84734 0.00216605 11.8091 1.51845
4701.00 1231.67 1.171446 53.8189 0.711421 18.21 0.454852 0.052046 4.54627 0.0040171 8.84816 0.00211405 11.9499 1.40233
4601.00 1230.81 1.180305 53.8046 0.71191 18.1856 0.46635 0.0507549 4.55006 0.00392372 8.84713 0.00206309 12.088 1.28952
4501.00 1229.91 1.189806 53.7941 0.711929 18.1611 0.477851 0.0495536 4.55218 0.00383235 8.84416 0.00201322 12.223 1.18029
4401.00 1228.97 1.199963 53.7879 0.711417 18.1363 0.489313 0.0484451 4.55247 0.00374305 8.83914 0.00196446 12.3543 1.07491
4301.00 1228.00 1.210774 53.7867 0.710315 18.1114 0.500692 0.0474328 4.55075 0.00365591 8.83198 0.00191685 12.4815 0.973667
4201.00 1226.98 1.222219 53.7911 0.70856 18.0861 0.511938 0.04652 4.54685 0.00357101 8.82259 0.00187044 12.604 0.876852
