Title: Depleted MORB Mantle of Workmann & Hart 2005

Solid Composition:
Pressure Temperature mass SiO2 TiO2 Al2O3 Fe2O3 Cr2O3 FeO MnO MgO NiO CaO Na2O 
44001.00 1545.44 99.605762 44.671 0.121587 3.98818 0.189103 0.568629 7.94674 0.129541 38.7483 0.240305 3.16313 0.233489
43901.00 1545.22 99.608914 44.6709 0.121634 3.98798 0.189116 0.568626 7.94717 0.129545 38.7479 0.240303 3.16311 0.233707
43801.00 1544.99 99.612006 44.6707 0.12168 3.98779 0.189129 0.568622 7.94759 0.129548 38.7476 0.240301 3.1631 0.233922
43701.00 1544.77 99.615038 44.6705 0.121725 3.98759 0.189141 0.568619 7.948 0.129552 38.7473 0.240299 3.16308 0.234134
43601.00 1544.54 99.618010 44.6704 0.12177 3.9874 0.189153 0.568616 7.94841 0.129556 38.747 0.240297 3.16306 0.234341
43501.00 1544.32 99.620923 44.6702 0.121814 3.9872 0.189164 0.568613 7.94881 0.129559 38.7468 0.240294 3.16304 0.234546
43401.00 1544.09 99.623775 44.67 0.121857 3.98701 0.189176 0.568611 7.9492 0.129563 38.7465 0.240293 3.16303 0.234747
43301.00 1543.86 99.626568 44.6699 0.121899 3.98682 0.189187 0.568608 7.94959 0.129566 38.7462 0.240291 3.16301 0.234944
43201.00 1543.64 99.629301 44.6697 0.12194 3.98663 0.189198 0.568606 7.94996 0.12957 38.7459 0.240289 3.16299 0.235137
43101.00 1543.41 99.631973 44.6696 0.121981 3.98644 0.189209 0.568603 7.95034 0.129573 38.7457 0.240287 3.16297 0.235327
43001.00 1543.18 99.634586 44.6695 0.122021 3.98625 0.189219 0.568601 7.9507 0.129576 38.7454 0.240285 3.16295 0.235513
42901.00 1542.95 99.637138 44.6693 0.12206 3.98607 0.189229 0.568599 7.95106 0.12958 38.7452 0.240284 3.16293 0.235695
42801.00 1542.72 99.639630 44.6692 0.122098 3.98588 0.189239 0.568596 7.95141 0.129583 38.7449 0.240282 3.16291 0.235874
42701.00 1542.50 99.642062 44.669 0.122136 3.9857 0.189249 0.568595 7.95175 0.129587 38.7447 0.240281 3.16289 0.236048
42601.00 1542.27 99.644433 44.6689 0.122173 3.98551 0.189258 0.568593 7.95209 0.12959 38.7445 0.24028 3.16287 0.236219
42501.00 1542.04 99.646743 44.6688 0.122209 3.98533 0.189268 0.568591 7.95242 0.129593 38.7443 0.240278 3.16285 0.236386
42401.00 1541.81 99.648992 44.6687 0.122244 3.98515 0.189276 0.568589 7.95275 0.129596 38.7441 0.240277 3.16283 0.236549
42301.00 1541.57 99.651181 44.6685 0.122278 3.98497 0.189285 0.568587 7.95307 0.1296 38.7439 0.240276 3.16281 0.236708
42201.00 1541.34 99.653309 44.6684 0.122312 3.98479 0.189294 0.568586 7.95338 0.129603 38.7437 0.240275 3.16279 0.236863
42101.00 1541.11 99.655375 44.6683 0.122345 3.98461 0.189302 0.568584 7.95369 0.129606 38.7435 0.240274 3.16276 0.237015
42001.00 1540.88 99.657380 44.6682 0.122377 3.98444 0.18931 0.568583 7.95399 0.129609 38.7433 0.240273 3.16274 0.237162
41901.00 1540.65 99.659324 44.6681 0.122408 3.98426 0.189318 0.568582 7.95428 0.129613 38.7432 0.240272 3.16272 0.237305
41801.00 1540.41 99.661206 44.668 0.122438 3.98409 0.189325 0.568581 7.95456 0.129616 38.743 0.240272 3.1627 0.237444
41701.00 1540.18 99.663026 44.6679 0.122468 3.98391 0.189333 0.56858 7.95484 0.129619 38.7429 0.240271 3.16267 0.237578
41601.00 1539.95 99.664783 44.6678 0.122497 3.98374 0.18934 0.568579 7.95512 0.129622 38.7427 0.240271 3.16265 0.237709
41501.00 1539.71 99.666479 44.6677 0.122525 3.98356 0.189346 0.568578 7.95539 0.129625 38.7426 0.24027 3.16262 0.237835
41401.00 1539.48 99.668112 44.6676 0.122552 3.98339 0.189353 0.568577 7.95565 0.129628 38.7425 0.24027 3.1626 0.237958
41301.00 1539.24 99.669682 44.6675 0.122578 3.98322 0.189359 0.568576 7.9559 0.129631 38.7423 0.240269 3.16257 0.238075
41201.00 1539.01 99.671190 44.6674 0.122604 3.98305 0.189365 0.568575 7.95615 0.129634 38.7422 0.240269 3.16254 0.238189
41101.00 1538.77 99.672634 44.6673 0.122629 3.98288 0.189371 0.568575 7.95639 0.129637 38.7421 0.240269 3.16252 0.238298
41001.00 1538.54 99.674015 44.6672 0.122652 3.98271 0.189377 0.568574 7.95663 0.12964 38.742 0.240269 3.16249 0.238403
40901.00 1538.30 99.675331 44.6671 0.122675 3.98254 0.189382 0.568574 7.95686 0.129643 38.742 0.240269 3.16246 0.238504
40801.00 1538.06 99.676584 44.6671 0.122697 3.98237 0.189388 0.568573 7.95709 0.129646 38.7419 0.240269 3.16243 0.2386
40701.00 1537.82 99.677773 44.667 0.122719 3.9822 0.189392 0.568573 7.9573 0.129649 38.7418 0.240269 3.1624 0.238692
40601.00 1537.59 99.678897 44.6669 0.122739 3.98203 0.189397 0.568572 7.95752 0.129652 38.7418 0.24027 3.16237 0.238779
40501.00 1537.35 99.679956 44.6668 0.122759 3.98186 0.189402 0.568572 7.95772 0.129655 38.7417 0.24027 3.16234 0.238861
40401.00 1537.11 99.680950 44.6668 0.122778 3.98169 0.189406 0.568572 7.95792 0.129658 38.7417 0.240271 3.16231 0.238939
40301.00 1536.87 99.681878 44.6667 0.122796 3.98152 0.18941 0.568572 7.95812 0.129661 38.7416 0.240271 3.16228 0.239013
40201.00 1536.63 99.682741 44.6667 0.122813 3.98135 0.189414 0.568572 7.9583 0.129664 38.7416 0.240272 3.16225 0.239082
40101.00 1536.39 99.683537 44.6666 0.122829 3.98118 0.189417 0.568572 7.95849 0.129667 38.7416 0.240273 3.16221 0.239146
40001.00 1536.15 99.684267 44.6665 0.122844 3.98102 0.189421 0.568572 7.95866 0.129669 38.7416 0.240273 3.16218 0.239205
39901.00 1535.90 99.684930 44.6665 0.122858 3.98085 0.189424 0.568572 7.95883 0.129672 38.7416 0.240274 3.16214 0.23926
39801.00 1535.66 99.685525 44.6665 0.122872 3.98068 0.189426 0.568573 7.959 0.129675 38.7416 0.240275 3.16211 0.23931
39701.00 1535.42 99.686053 44.6664 0.122885 3.98051 0.189429 0.568573 7.95916 0.129678 38.7417 0.240277 3.16207 0.239355
39601.00 1535.18 99.686513 44.6664 0.122896 3.98034 0.189431 0.568573 7.95931 0.129681 38.7417 0.240278 3.16203 0.239395
39501.00 1534.93 99.686904 44.6663 0.122907 3.98017 0.189434 0.568574 7.95946 0.129684 38.7417 0.240279 3.16199 0.239431
39401.00 1534.69 99.687226 44.6663 0.122917 3.98 0.189435 0.568574 7.9596 0.129687 38.7418 0.240281 3.16195 0.239462
39301.00 1534.44 99.687478 44.6663 0.122926 3.97983 0.189437 0.568575 7.95973 0.129689 38.7419 0.240282 3.16191 0.239487
39201.00 1534.20 99.687661 44.6662 0.122935 3.97966 0.189439 0.568576 7.95986 0.129692 38.742 0.240284 3.16187 0.239508
39101.00 1533.95 99.687774 44.6662 0.122942 3.97949 0.18944 0.568576 7.95999 0.129695 38.742 0.240286 3.16183 0.239523
39001.00 1533.71 99.687816 44.6662 0.122948 3.97931 0.189441 0.568577 7.9601 0.129698 38.7421 0.240288 3.16179 0.239534
38901.00 1533.46 99.687786 44.6661 0.122954 3.97914 0.189441 0.568578 7.96022 0.129701 38.7423 0.24029 3.16174 0.23954
38801.00 1533.21 99.687685 44.6661 0.122958 3.97897 0.189442 0.568579 7.96032 0.129704 38.7424 0.240292 3.1617 0.23954
38701.00 1532.97 99.687511 44.6661 0.122962 3.97879 0.189442 0.56858 7.96042 0.129706 38.7425 0.240294 3.16165 0.239535
38601.00 1532.72 99.687264 44.6661 0.122965 3.97861 0.189442 0.568581 7.96052 0.129709 38.7426 0.240296 3.1616 0.239526
38501.00 1532.47 99.686945 44.6661 0.122966 3.97844 0.189442 0.568582 7.96061 0.129712 38.7428 0.240299 3.16155 0.239511
38401.00 1532.22 99.686551 44.6661 0.122967 3.97826 0.189441 0.568583 7.96069 0.129715 38.743 0.240301 3.1615 0.23949
38301.00 1531.97 99.686083 44.6661 0.122967 3.97808 0.18944 0.568585 7.96077 0.129718 38.7431 0.240304 3.16145 0.239465
38201.00 1531.72 99.685539 44.6661 0.122966 3.9779 0.189439 0.568586 7.96084 0.129721 38.7433 0.240307 3.1614 0.239434
38101.00 1531.47 99.684920 44.6661 0.122964 3.97772 0.189438 0.568588 7.96091 0.129724 38.7435 0.24031 3.16134 0.239398
38001.00 1531.22 99.684225 44.6661 0.122961 3.97753 0.189437 0.568589 7.96097 0.129726 38.7437 0.240313 3.16129 0.239356
37901.00 1530.97 99.683453 44.6661 0.122957 3.97735 0.189435 0.568591 7.96102 0.129729 38.744 0.240316 3.16123 0.239309
37801.00 1530.72 99.682603 44.6661 0.122952 3.97716 0.189433 0.568593 7.96107 0.129732 38.7442 0.24032 3.16117 0.239257
37701.00 1530.46 99.681675 44.6661 0.122946 3.97697 0.189431 0.568595 7.96112 0.129735 38.7445 0.240323 3.16111 0.239199
37601.00 1530.21 99.680668 44.6661 0.12294 3.97678 0.189428 0.568597 7.96116 0.129738 38.7447 0.240327 3.16105 0.239136
37501.00 1529.96 99.679581 44.6662 0.122932 3.97659 0.189425 0.568599 7.96119 0.129741 38.745 0.24033 3.16099 0.239067
37401.00 1529.70 99.678415 44.6662 0.122923 3.97639 0.189422 0.568601 7.96122 0.129744 38.7453 0.240334 3.16092 0.238992
37301.00 1529.45 99.677167 44.6662 0.122913 3.97619 0.189419 0.568603 7.96124 0.129747 38.7456 0.240338 3.16086 0.238912
37201.00 1529.19 99.675837 44.6662 0.122903 3.97599 0.189415 0.568606 7.96125 0.12975 38.7459 0.240342 3.16079 0.238826
37101.00 1528.93 99.674425 44.6663 0.122891 3.97579 0.189411 0.568608 7.96126 0.129753 38.7462 0.240347 3.16072 0.238735
37001.00 1528.68 99.672930 44.6663 0.122878 3.97558 0.189407 0.568611 7.96127 0.129756 38.7465 0.240351 3.16065 0.238638
36901.00 1528.42 99.671351 44.6663 0.122865 3.97538 0.189403 0.568614 7.96127 0.129759 38.7469 0.240356 3.16058 0.238535
36801.00 1528.16 99.669686 44.6664 0.12285 3.97517 0.189398 0.568617 7.96126 0.129762 38.7473 0.24036 3.1605 0.238427
36701.00 1527.90 99.667936 44.6664 0.122834 3.97495 0.189393 0.56862 7.96125 0.129766 38.7476 0.240365 3.16043 0.238312
36601.00 1527.64 99.666100 44.6665 0.122817 3.97474 0.189388 0.568623 7.96123 0.129769 38.748 0.24037 3.16035 0.238192
36501.00 1527.38 99.664176 44.6665 0.1228 3.97452 0.189382 0.568626 7.96121 0.129772 38.7485 0.240376 3.16027 0.238066
36401.00 1527.12 99.662164 44.6666 0.122781 3.97429 0.189376 0.56863 7.96118 0.129775 38.7489 0.240381 3.16018 0.237935
36301.00 1526.86 99.660063 44.6667 0.122761 3.97407 0.18937 0.568633 7.96114 0.129778 38.7493 0.240386 3.1601 0.237797
36201.00 1526.60 99.657871 44.6667 0.12274 3.97383 0.189364 0.568637 7.9611 0.129782 38.7498 0.240392 3.16001 0.237653
36101.00 1526.34 99.655589 44.6668 0.122718 3.9736 0.189357 0.568641 7.96106 0.129785 38.7502 0.240398 3.15992 0.237503
36001.00 1526.07 99.653214 44.6668 0.122696 3.97336 0.18935 0.568646 7.961 0.129789 38.7507 0.240404 3.15983 0.237348
35901.00 1525.81 99.650747 44.6669 0.122672 3.97312 0.189343 0.56865 7.96095 0.129792 38.7512 0.24041 3.15973 0.237186
35801.00 1525.54 99.648185 44.667 0.122647 3.97287 0.189335 0.568655 7.96088 0.129795 38.7517 0.240417 3.15964 0.237018
35701.00 1525.28 99.645529 44.6671 0.122621 3.97262 0.189327 0.568659 7.96082 0.129799 38.7523 0.240423 3.15954 0.236844
35601.00 1525.01 99.642776 44.6672 0.122593 3.97237 0.189319 0.568664 7.96074 0.129803 38.7528 0.24043 3.15944 0.236665
35501.00 1524.75 99.639926 44.6672 0.122565 3.97211 0.18931 0.56867 7.96066 0.129806 38.7534 0.240437 3.15933 0.236478
35401.00 1524.48 99.636978 44.6673 0.122536 3.97184 0.189301 0.568675 7.96058 0.12981 38.754 0.240444 3.15922 0.236286
35301.00 1524.21 99.633931 44.6674 0.122506 3.97157 0.189292 0.568681 7.96049 0.129814 38.7546 0.240451 3.15911 0.236088
35201.00 1523.94 99.630783 44.6675 0.122474 3.9713 0.189283 0.568687 7.96039 0.129817 38.7552 0.240459 3.159 0.235883
35101.00 1523.67 99.627533 44.6676 0.122442 3.97102 0.189273 0.568693 7.96029 0.129821 38.7558 0.240466 3.15889 0.235672
35001.00 1523.40 99.624180 44.6677 0.122408 3.97073 0.189263 0.5687 7.96018 0.129825 38.7565 0.240474 3.15877 0.235455
34901.00 1523.13 99.620723 44.6678 0.122374 3.97044 0.189252 0.568706 7.96006 0.129829 38.7572 0.240482 3.15864 0.235232
34801.00 1522.86 99.617161 44.6679 0.122338 3.97014 0.189241 0.568713 7.95995 0.129833 38.7578 0.240491 3.15852 0.235002
34701.00 1522.59 99.613493 44.668 0.122301 3.96984 0.18923 0.568721 7.95982 0.129837 38.7586 0.240499 3.15839 0.234766
34601.00 1522.32 99.609716 44.6682 0.122264 3.96952 0.189219 0.568729 7.95969 0.129841 38.7593 0.240508 3.15826 0.234523
34501.00 1522.04 99.605830 44.6683 0.122225 3.96921 0.189207 0.568737 7.95955 0.129845 38.76 0.240517 3.15812 0.234274
34401.00 1521.77 99.601833 44.6684 0.122184 3.96888 0.189194 0.568745 7.95941 0.12985 38.7608 0.240526 3.15798 0.234019
34301.00 1521.49 99.597724 44.6685 0.122143 3.96855 0.189182 0.568754 7.95926 0.129854 38.7616 0.240535 3.15784 0.233757
34201.00 1521.22 99.593502 44.6687 0.122101 3.96821 0.189169 0.568763 7.95911 0.129859 38.7624 0.240545 3.15769 0.233489
34101.00 1520.94 99.589165 44.6688 0.122057 3.96787 0.189155 0.568772 7.95895 0.129863 38.7632 0.240555 3.15754 0.233214
34001.00 1520.66 99.584711 44.6689 0.122013 3.96752 0.189142 0.568782 7.95878 0.129868 38.7641 0.240565 3.15739 0.232933
33901.00 1520.38 99.580140 44.6691 0.121967 3.96716 0.189128 0.568792 7.95861 0.129872 38.7649 0.240575 3.15723 0.232645
33801.00 1520.10 99.575449 44.6692 0.12192 3.96679 0.189113 0.568803 7.95843 0.129877 38.7658 0.240586 3.15707 0.232351
33701.00 1519.82 99.570637 44.6694 0.121872 3.96641 0.189098 0.568814 7.95825 0.129882 38.7668 0.240597 3.1569 0.23205
33601.00 1519.54 99.565702 44.6695 0.121823 3.96602 0.189083 0.568825 7.95806 0.129887 38.7677 0.240608 3.15673 0.231743
33501.00 1519.26 99.560643 44.6697 0.121773 3.96563 0.189067 0.568837 7.95787 0.129892 38.7687 0.240619 3.15655 0.231429
33401.00 1518.98 99.555458 44.6698 0.121722 3.96522 0.189051 0.56885 7.95766 0.129897 38.7696 0.240631 3.15637 0.231108
33301.00 1518.69 99.550145 44.67 0.121669 3.96481 0.189035 0.568863 7.95746 0.129903 38.7706 0.240643 3.15619 0.230781
33201.00 1518.41 99.544703 44.6702 0.121615 3.96439 0.189018 0.568876 7.95724 0.129908 38.7717 0.240655 3.156 0.230447
33101.00 1518.12 99.539129 44.6704 0.121561 3.96395 0.189 0.56889 7.95703 0.129914 38.7727 0.240667 3.1558 0.230106
33001.00 1517.84 99.533422 44.6705 0.121505 3.96351 0.188983 0.568905 7.9568 0.129919 38.7738 0.24068 3.1556 0.229759
32901.00 1517.55 99.527580 44.6707 0.121447 3.96306 0.188964 0.56892 7.95657 0.129925 38.7749 0.240693 3.15539 0.229405
32801.00 1517.26 99.521602 44.6709 0.121389 3.96259 0.188946 0.568935 7.95633 0.129931 38.776 0.240706 3.15518 0.229044
32701.00 1516.97 99.515484 44.6711 0.121329 3.96212 0.188927 0.568952 7.95609 0.129937 38.7772 0.24072 3.15496 0.228677
32601.00 1516.68 99.509225 44.6713 0.121269 3.96163 0.188907 0.568968 7.95584 0.129943 38.7784 0.240734 3.15474 0.228303
32501.00 1516.39 99.502823 44.6715 0.121207 3.96113 0.188887 0.568986 7.95558 0.129949 38.7796 0.240748 3.15451 0.227922
32401.00 1516.10 99.496276 44.6717 0.121144 3.96062 0.188867 0.569004 7.95532 0.129955 38.7808 0.240763 3.15428 0.227534
32301.00 1515.81 99.489582 44.6719 0.121079 3.9601 0.188846 0.569023 7.95505 0.129962 38.7821 0.240777 3.15403 0.22714
32201.00 1515.51 99.482738 44.6721 0.121014 3.95957 0.188825 0.569043 7.95478 0.129968 38.7834 0.240793 3.15379 0.226739
32101.00 1515.22 99.475743 44.6723 0.120947 3.95902 0.188803 0.569063 7.9545 0.129975 38.7847 0.240808 3.15353 0.226331
32001.00 1514.92 99.468593 44.6725 0.12088 3.95846 0.18878 0.569084 7.95421 0.129982 38.7861 0.240824 3.15327 0.225916
31901.00 1514.62 99.461287 44.6728 0.12081 3.95788 0.188758 0.569106 7.95392 0.129989 38.7875 0.24084 3.153 0.225494
31801.00 1514.32 99.453823 44.673 0.12074 3.95729 0.188734 0.569129 7.95361 0.129996 38.7889 0.240857 3.15272 0.225066
31701.00 1514.03 99.446197 44.6732 0.120669 3.95669 0.188711 0.569152 7.95331 0.130004 38.7903 0.240874 3.15244 0.224631
31601.00 1513.72 99.438408 44.6734 0.120596 3.95607 0.188686 0.569177 7.95299 0.130011 38.7918 0.240891 3.15215 0.224189
31501.00 1513.42 99.430452 44.6737 0.120522 3.95544 0.188662 0.569202 7.95267 0.130019 38.7933 0.240908 3.15185 0.22374
31401.00 1513.12 99.422327 44.6739 0.120447 3.95479 0.188636 0.569228 7.95235 0.130027 38.7948 0.240926 3.15154 0.223284
31301.00 1512.82 99.414031 44.6742 0.120371 3.95412 0.18861 0.569255 7.95202 0.130035 38.7964 0.240945 3.15123 0.222822
31201.00 1512.51 99.405560 44.6744 0.120293 3.95344 0.188584 0.569283 7.95168 0.130043 38.798 0.240964 3.1509 0.222353
31101.00 1512.21 99.396913 44.6747 0.120214 3.95274 0.188557 0.569312 7.95133 0.130051 38.7997 0.240983 3.15057 0.221877
31001.00 1511.90 99.388085 44.675 0.120134 3.95202 0.18853 0.569342 7.95097 0.13006 38.8013 0.241002 3.15023 0.221394
30901.00 1511.59 99.379074 44.6752 0.120053 3.95129 0.188502 0.569373 7.95061 0.130069 38.8031 0.241022 3.14988 0.220904
30801.00 1511.28 99.369878 44.6755 0.119971 3.95054 0.188473 0.569405 7.95025 0.130077 38.8048 0.241043 3.14952 0.220407
30701.00 1510.97 99.360492 44.6758 0.119887 3.94977 0.188444 0.569439 7.94987 0.130087 38.8066 0.241064 3.14915 0.219904
30601.00 1510.66 99.350915 44.6761 0.119802 3.94898 0.188414 0.569473 7.94949 0.130096 38.8084 0.241085 3.14877 0.219394
30501.00 1510.34 99.341142 44.6763 0.119716 3.94817 0.188384 0.569509 7.9491 0.130105 38.8103 0.241107 3.14838 0.218877
30401.00 1510.03 99.331170 44.6766 0.119629 3.94734 0.188353 0.569546 7.94871 0.130115 38.8122 0.241129 3.14798 0.218354
30301.00 1509.71 99.320997 44.6769 0.11954 3.94649 0.188322 0.569584 7.9483 0.130125 38.8142 0.241152 3.14757 0.217823
30201.00 1509.39 99.310618 44.6772 0.11945 3.94562 0.18829 0.569623 7.94789 0.130135 38.8161 0.241175 3.14714 0.217286
30101.00 1509.07 99.300030 44.6775 0.119359 3.94473 0.188258 0.569664 7.94748 0.130146 38.8182 0.241198 3.14671 0.216742
30001.00 1508.75 99.289230 44.6779 0.119267 3.94381 0.188225 0.569706 7.94705 0.130156 38.8202 0.241223 3.14626 0.216191
29901.00 1508.43 99.278214 44.6782 0.119173 3.94288 0.188191 0.569749 7.94662 0.130167 38.8224 0.241247 3.1458 0.215634
29801.00 1508.11 99.266978 44.6785 0.119078 3.94192 0.188157 0.569794 7.94618 0.130179 38.8245 0.241272 3.14533 0.21507
29701.00 1507.78 99.255518 44.6788 0.118982 3.94093 0.188122 0.56984 7.94573 0.13019 38.8267 0.241298 3.14485 0.214499
29601.00 1507.46 99.243831 44.6792 0.118885 3.93992 0.188086 0.569888 7.94528 0.130202 38.829 0.241324 3.14435 0.213922
29501.00 1507.13 99.231912 44.6795 0.118786 3.93889 0.18805 0.569937 7.94481 0.130213 38.8313 0.241351 3.14384 0.213338
29401.00 1506.80 99.219757 44.6798 0.118686 3.93783 0.188013 0.569988 7.94434 0.130226 38.8336 0.241378 3.14332 0.212748
29301.00 1506.47 99.207363 44.6802 0.118585 3.93674 0.187976 0.570041 7.94386 0.130238 38.836 0.241406 3.14278 0.21215
29201.00 1506.14 99.194724 44.6805 0.118483 3.93563 0.187938 0.570095 7.94338 0.130251 38.8385 0.241434 3.14223 0.211547
29101.00 1505.80 99.181837 44.6809 0.118379 3.93449 0.1879 0.570151 7.94288 0.130264 38.841 0.241463 3.14166 0.210937
29001.00 1505.47 99.168696 44.6813 0.118275 3.93332 0.18786 0.570209 7.94238 0.130277 38.8435 0.241493 3.14108 0.21032
28901.00 1505.13 99.155298 44.6816 0.118169 3.93212 0.187821 0.570268 7.94187 0.130291 38.8461 0.241523 3.14048 0.209697
28801.00 1504.79 99.141638 44.682 0.118061 3.93089 0.18778 0.57033 7.94135 0.130305 38.8488 0.241554 3.13986 0.209067
28701.00 1504.45 99.127711 44.6824 0.117953 3.92964 0.187739 0.570393 7.94082 0.130319 38.8515 0.241586 3.13923 0.208431
28601.00 1504.11 99.113554 44.6828 0.117843 3.92835 0.187698 0.570458 7.94028 0.130333 38.8543 0.241617 3.13858 0.207789
28501.00 1503.77 99.099184 44.6832 0.117732 3.92705 0.187656 0.570524 7.93974 0.130348 38.8571 0.24165 3.13792 0.20714
28401.00 1503.42 99.084598 44.6836 0.11762 3.92573 0.187613 0.570591 7.93918 0.130363 38.8599 0.241683 3.13725 0.206483
28301.00 1503.07 99.069793 44.684 0.117506 3.92439 0.18757 0.570659 7.93862 0.130378 38.8628 0.241716 3.13656 0.205821
28201.00 1502.72 99.054767 44.6844 0.117391 3.92303 0.187527 0.570729 7.93805 0.130393 38.8658 0.24175 3.13587 0.205151
28101.00 1502.37 99.039518 44.6848 0.117275 3.92164 0.187483 0.5708 7.93747 0.130408 38.8687 0.241785 3.13516 0.204475
28001.00 1502.02 99.024043 44.6852 0.117157 3.92024 0.187438 0.570873 7.93688 0.130424 38.8718 0.241819 3.13443 0.203792
27901.00 1501.67 99.008340 44.6856 0.117038 3.91881 0.187393 0.570947 7.93628 0.13044 38.8748 0.241855 3.13369 0.203102
27801.00 1501.31 98.992406 44.686 0.116918 3.91736 0.187348 0.571022 7.93567 0.130456 38.878 0.241891 3.13294 0.202406
27701.00 1500.96 98.976238 44.6865 0.116797 3.91588 0.187302 0.571099 7.93505 0.130472 38.8811 0.241927 3.13217 0.201704
