Title: Depleted MORB Mantle of Workmann & Hart 2005

Liquid Composition:
Pressure Temperature mass SiO2 TiO2 Al2O3 Fe2O3 Cr2O3 FeO MnO MgO NiO CaO Na2O 
44001.00 1505.13 0.000000 ---
43901.00 1504.89 0.000000 ---
43801.00 1504.66 0.000000 ---
43701.00 1504.43 0.000000 ---
43601.00 1504.19 0.000000 ---
43501.00 1503.96 0.000000 ---
43401.00 1503.73 0.000000 ---
43301.00 1503.49 0.000000 ---
43201.00 1503.26 0.000000 ---
43101.00 1503.03 0.000000 ---
43001.00 1502.79 0.000000 ---
42901.00 1502.56 0.000000 ---
42801.00 1502.33 0.000000 ---
42701.00 1502.09 0.000000 ---
42601.00 1501.86 0.000000 ---
42501.00 1501.63 0.000000 ---
42401.00 1501.39 0.000000 ---
42301.00 1501.16 0.000000 ---
42201.00 1500.92 0.000000 ---
42101.00 1500.69 0.000000 ---
42001.00 1500.45 0.000000 ---
41901.00 1500.22 0.000000 ---
41801.00 1499.99 0.000000 ---
41701.00 1499.75 0.000000 ---
41601.00 1499.52 0.000000 ---
41501.00 1499.28 0.000000 ---
41401.00 1499.05 0.000000 ---
41301.00 1498.81 0.000000 ---
41201.00 1498.58 0.000000 ---
41101.00 1498.34 0.000000 ---
41001.00 1498.11 0.000000 ---
40901.00 1497.87 0.000000 ---
40801.00 1497.64 0.000000 ---
40701.00 1497.40 0.000000 ---
40601.00 1497.17 0.000000 ---
40501.00 1496.93 0.000000 ---
40401.00 1496.70 0.000000 ---
40301.00 1496.46 0.000000 ---
40201.00 1496.22 0.000000 ---
40101.00 1495.99 0.000000 ---
40001.00 1495.75 0.000000 ---
39901.00 1495.52 0.000000 ---
39801.00 1495.28 0.000000 ---
39701.00 1495.04 0.000000 ---
39601.00 1494.81 0.000000 ---
39501.00 1494.57 0.000000 ---
39401.00 1494.33 0.000000 ---
39301.00 1494.10 0.000000 ---
39201.00 1493.86 0.000000 ---
39101.00 1493.62 0.000000 ---
39001.00 1493.39 0.000000 ---
38901.00 1493.15 0.000000 ---
38801.00 1492.91 0.000000 ---
38701.00 1492.68 0.000000 ---
38601.00 1492.44 0.000000 ---
38501.00 1492.20 0.000000 ---
38401.00 1491.96 0.000000 ---
38301.00 1491.72 0.000000 ---
38201.00 1491.49 0.000000 ---
38101.00 1491.25 0.000000 ---
38001.00 1491.01 0.000000 ---
37901.00 1490.77 0.000000 ---
37801.00 1490.53 0.000000 ---
37701.00 1490.29 0.000000 ---
37601.00 1490.06 0.000000 ---
37501.00 1489.82 0.000000 ---
37401.00 1489.58 0.000000 ---
37301.00 1489.34 0.000000 ---
37201.00 1489.10 0.000000 ---
37101.00 1488.86 0.000000 ---
37001.00 1488.62 0.000000 ---
36901.00 1488.38 0.000000 ---
36801.00 1488.14 0.000000 ---
36701.00 1487.90 0.000000 ---
36601.00 1487.66 0.000000 ---
36501.00 1487.42 0.000000 ---
36401.00 1487.18 0.000000 ---
36301.00 1486.94 0.000000 ---
36201.00 1486.70 0.000000 ---
36101.00 1486.46 0.000000 ---
36001.00 1486.22 0.000000 ---
35901.00 1485.97 0.000000 ---
35801.00 1485.73 0.000000 ---
35701.00 1485.49 0.000000 ---
35601.00 1485.25 0.000000 ---
35501.00 1485.01 0.000000 ---
35401.00 1484.76 0.000000 ---
35301.00 1484.52 0.000000 ---
35201.00 1484.28 0.000000 ---
35101.00 1484.04 0.000000 ---
35001.00 1483.79 0.000000 ---
34901.00 1483.55 0.000000 ---
34801.00 1483.31 0.000000 ---
34701.00 1483.06 0.000000 ---
34601.00 1482.82 0.000000 ---
34501.00 1482.57 0.000000 ---
34401.00 1482.33 0.000000 ---
34301.00 1482.08 0.000000 ---
34201.00 1481.84 0.000000 ---
34101.00 1481.59 0.000000 ---
34001.00 1481.35 0.000000 ---
33901.00 1481.10 0.000000 ---
33801.00 1480.86 0.000000 ---
33701.00 1480.61 0.000000 ---
33601.00 1480.36 0.000000 ---
33501.00 1480.12 0.000000 ---
33401.00 1479.87 0.000000 ---
33301.00 1479.62 0.000000 ---
33201.00 1479.38 0.000000 ---
33101.00 1479.13 0.000000 ---
33001.00 1478.88 0.000000 ---
32901.00 1478.63 0.000000 ---
32801.00 1478.38 0.000000 ---
32701.00 1478.13 0.000000 ---
32601.00 1477.88 0.000000 ---
32501.00 1477.64 0.000000 ---
32401.00 1477.39 0.000000 ---
32301.00 1477.14 0.000000 ---
32201.00 1476.88 0.000000 ---
32101.00 1476.63 0.000000 ---
32001.00 1476.38 0.000000 ---
31901.00 1476.13 0.000000 ---
31801.00 1475.88 0.000000 ---
31701.00 1475.63 0.000000 ---
31601.00 1475.37 0.000000 ---
31501.00 1475.12 0.000000 ---
31401.00 1474.87 0.000000 ---
31301.00 1474.62 0.000000 ---
31201.00 1474.36 0.000000 ---
31101.00 1474.11 0.000000 ---
31001.00 1473.85 0.000000 ---
30901.00 1473.60 0.000000 ---
30801.00 1473.34 0.000000 ---
30701.00 1473.09 0.000000 ---
30601.00 1472.83 0.000000 ---
30501.00 1472.57 0.000000 ---
30401.00 1472.31 0.000000 ---
30301.00 1472.06 0.000000 ---
30201.00 1471.80 0.000000 ---
30101.00 1471.54 0.000000 ---
30001.00 1471.28 0.000000 ---
29901.00 1471.02 0.000000 ---
29801.00 1470.76 0.000000 ---
29701.00 1470.50 0.000000 ---
29601.00 1470.24 0.000000 ---
29501.00 1469.98 0.000000 ---
29401.00 1469.71 0.000000 ---
29301.00 1469.45 0.000000 ---
29201.00 1469.19 0.000000 ---
29101.00 1468.92 0.000000 ---
29001.00 1468.66 0.000000 ---
28901.00 1468.39 0.000000 ---
28801.00 1468.13 0.000000 ---
28701.00 1467.86 0.000000 ---
28601.00 1467.60 0.000000 ---
28501.00 1467.33 0.000000 ---
28401.00 1467.06 0.000000 ---
28301.00 1466.79 0.000000 ---
28201.00 1466.52 0.000000 ---
28101.00 1466.25 0.000000 ---
28001.00 1465.98 0.000000 ---
27901.00 1465.71 0.000000 ---
27801.00 1465.44 0.000000 ---
27701.00 1465.16 0.000000 ---
27601.00 1464.89 0.000000 ---
27501.00 1464.61 0.000000 ---
27401.00 1464.34 0.000000 ---
27301.00 1464.06 0.000000 ---
27201.00 1463.78 0.000000 ---
27101.00 1463.51 0.000000 ---
27001.00 1463.23 0.000000 ---
26901.00 1462.95 0.000000 ---
26801.00 1462.66 0.000000 ---
26701.00 1462.38 0.000000 ---
26601.00 1462.10 0.000000 ---
26501.00 1461.82 0.000000 ---
26401.00 1461.53 0.000000 ---
26301.00 1461.24 0.000000 ---
26201.00 1460.96 0.000000 ---
26101.00 1460.67 0.000000 ---
26001.00 1460.38 0.000000 ---
25901.00 1460.06 0.007110 42.6694 1.19491 10.9706 0.280713 0.517156 11.3385 0.0661584 18.2208 0.0411109 4.99513 9.70555
25801.00 1459.72 0.016986 42.6857 1.18821 11.0369 0.280898 0.508846 11.3194 0.0654774 18.1993 0.0406777 5.02559 9.64903
25701.00 1459.39 0.027033 42.7021 1.18148 11.103 0.28106 0.500537 11.3004 0.0648003 18.1778 0.040247 5.05637 9.59213
25601.00 1459.05 0.037253 42.7187 1.17471 11.1691 0.281201 0.492231 11.2815 0.0641271 18.1563 0.039819 5.08747 9.53485
25501.00 1458.71 0.047649 42.7353 1.1679 11.2351 0.281318 0.48393 11.2628 0.0634579 18.1348 0.0393937 5.1189 9.4772
25401.00 1458.37 0.058223 42.7519 1.16105 11.3009 0.28141 0.475636 11.2442 0.0627927 18.1133 0.038971 5.15066 9.41917
25301.00 1458.03 0.068979 42.7687 1.15417 11.3667 0.281478 0.467352 11.2257 0.0621316 18.0917 0.038551 5.18274 9.36076
25201.00 1457.69 0.079918 42.7855 1.14724 11.4324 0.281519 0.459081 11.2074 0.0614745 18.0702 0.0381338 5.21516 9.30199
25101.00 1457.34 0.091045 42.8024 1.14028 11.4979 0.281533 0.450823 11.1892 0.0608215 18.0486 0.0377192 5.24791 9.24285
25001.00 1456.99 0.102361 42.8194 1.13328 11.5634 0.281518 0.442581 11.1711 0.0601726 18.027 0.0373074 5.28099 9.18334
24901.00 1456.64 0.113869 42.8364 1.12625 11.6287 0.281473 0.434358 11.1532 0.0595278 18.0054 0.0368984 5.31442 9.12348
24801.00 1456.29 0.125572 42.8535 1.11917 11.6938 0.281398 0.426157 11.1354 0.0588872 17.9837 0.0364921 5.34819 9.06325
24701.00 1455.94 0.137473 42.8707 1.11206 11.7589 0.28129 0.417978 11.1177 0.0582508 17.9621 0.0360887 5.3823 9.00268
24601.00 1455.58 0.149574 42.8879 1.10491 11.8238 0.28115 0.409825 11.1002 0.0576186 17.9404 0.035688 5.41676 8.94175
24501.00 1455.22 0.161878 42.9052 1.09772 11.8886 0.280975 0.4017 11.0829 0.0569907 17.9186 0.0352901 5.45157 8.88047
24401.00 1454.86 0.174389 42.9225 1.09049 11.9532 0.280764 0.393605 11.0657 0.056367 17.8969 0.0348951 5.48673 8.81886
24301.00 1454.50 0.187108 42.9399 1.08323 12.0177 0.280516 0.385542 11.0486 0.0557477 17.8751 0.0345029 5.52225 8.7569
24201.00 1454.13 0.200038 42.9574 1.07592 12.082 0.28023 0.377514 11.0317 0.0551326 17.8532 0.0341136 5.55812 8.6946
24101.00 1453.76 0.213181 42.9749 1.06858 12.1462 0.279904 0.369524 11.015 0.054522 17.8313 0.0337271 5.59435 8.63198
24001.00 1453.39 0.226541 42.9925 1.06119 12.2102 0.279538 0.361573 10.9984 0.0539156 17.8094 0.0333436 5.63094 8.56903
23901.00 1453.02 0.240120 43.0101 1.05377 12.2741 0.279128 0.353663 10.982 0.0533137 17.7873 0.0329629 5.66789 8.50575
23801.00 1452.64 0.253919 43.0277 1.04631 12.3377 0.278675 0.345798 10.9658 0.0527162 17.7653 0.0325851 5.7052 8.44216
23701.00 1452.26 0.267942 43.0454 1.0388 12.4012 0.278177 0.33798 10.9498 0.0521231 17.7432 0.0322103 5.74288 8.37826
23601.00 1451.88 0.282189 43.0632 1.03126 12.4645 0.277632 0.33021 10.9339 0.0515345 17.721 0.0318384 5.78093 8.31404
23501.00 1451.50 0.296664 43.0809 1.02367 12.5277 0.277038 0.322492 10.9182 0.0509504 17.6987 0.0314695 5.81935 8.24953
23401.00 1451.11 0.311368 43.0987 1.01605 12.5906 0.276394 0.314827 10.9027 0.0503708 17.6764 0.0311035 5.85814 8.18471
23301.00 1450.72 0.326302 43.1166 1.00838 12.6534 0.275699 0.307218 10.8874 0.0497958 17.654 0.0307405 5.89729 8.11961
23201.00 1450.33 0.341468 43.1345 1.00067 12.7159 0.274951 0.299667 10.8722 0.0492253 17.6315 0.0303805 5.93683 8.05422
23101.00 1449.93 0.356866 43.1524 0.992923 12.7783 0.274148 0.292177 10.8573 0.0486594 17.6089 0.0300234 5.97673 7.98854
23001.00 1449.54 0.372499 43.1703 0.985129 12.8404 0.273289 0.284749 10.8426 0.0480981 17.5862 0.0296694 6.01701 7.9226
22901.00 1449.13 0.388366 43.1883 0.977293 12.9023 0.272371 0.277386 10.828 0.0475414 17.5634 0.0293185 6.05767 7.85638
22801.00 1448.73 0.404467 43.2063 0.969413 12.9641 0.271394 0.270091 10.8137 0.0469893 17.5405 0.0289705 6.0987 7.78991
22701.00 1448.32 0.420802 43.2243 0.96149 13.0256 0.270355 0.262864 10.7996 0.046442 17.5175 0.0286256 6.14011 7.72317
22601.00 1447.91 0.437371 43.2423 0.953522 13.0868 0.269254 0.255709 10.7857 0.0458993 17.4944 0.0282838 6.1819 7.6562
22501.00 1447.49 0.454172 43.2604 0.945509 13.1479 0.268087 0.248628 10.7721 0.0453614 17.4711 0.0279451 6.22406 7.58898
22401.00 1447.07 0.471205 43.2785 0.937451 13.2087 0.266853 0.241623 10.7587 0.0448282 17.4477 0.0276094 6.2666 7.52152
22301.00 1446.65 0.488466 43.2965 0.929347 13.2693 0.265551 0.234695 10.7455 0.0442998 17.4241 0.0272769 6.30951 7.45384
22201.00 1446.22 0.505952 43.3147 0.921197 13.3296 0.264179 0.227848 10.7326 0.0437761 17.4005 0.0269475 6.35281 7.38595
22101.00 1445.79 0.523661 43.3328 0.912999 13.3897 0.262735 0.221082 10.7199 0.0432573 17.3766 0.0266212 6.39647 7.31784
22001.00 1445.37 0.548503 43.3569 0.907463 13.4368 0.262397 0.216223 10.7035 0.0427988 17.3537 0.0263319 6.43892 7.25502
21901.00 1444.98 0.586759 43.3923 0.906982 13.4596 0.264262 0.214805 10.6796 0.0424465 17.3329 0.0261074 6.47872 7.20225
21801.00 1444.59 0.625592 43.4278 0.906486 13.4823 0.266149 0.213384 10.6557 0.042095 17.3121 0.0258837 6.51883 7.14925
21701.00 1444.20 0.665016 43.4634 0.905974 13.5049 0.268058 0.21196 10.6318 0.0417445 17.2912 0.0256605 6.55924 7.09601
21601.00 1443.81 0.705048 43.499 0.905447 13.5274 0.269988 0.210533 10.608 0.0413949 17.2703 0.0254381 6.59995 7.04254
21501.00 1443.41 0.745701 43.5348 0.904903 13.5497 0.271941 0.209103 10.5841 0.0410463 17.2493 0.0252163 6.64097 6.98885
21401.00 1443.02 0.786994 43.5706 0.904341 13.5719 0.273916 0.207671 10.5603 0.0406987 17.2283 0.0249953 6.68229 6.93494
21301.00 1442.62 0.828941 43.6065 0.903763 13.594 0.275913 0.206237 10.5364 0.0403521 17.2072 0.0247749 6.72393 6.88082
21201.00 1442.21 0.871561 43.6425 0.903167 13.616 0.277932 0.204801 10.5126 0.0400065 17.1861 0.0245552 6.76586 6.82649
21101.00 1441.81 0.914869 43.6786 0.902552 13.6378 0.279973 0.203365 10.4887 0.039662 17.1649 0.0243363 6.8081 6.77195
21001.00 1441.40 0.958886 43.7148 0.901918 13.6596 0.282036 0.201927 10.4648 0.0393184 17.1436 0.0241181 6.85065 6.71722
20901.00 1441.00 1.003628 43.751 0.901265 13.6811 0.284122 0.200489 10.441 0.038976 17.1223 0.0239006 6.89351 6.6623
20801.00 1440.58 1.046837 43.7874 0.900593 13.7026 0.286231 0.19905 10.4171 0.0386346 17.1009 0.0236839 6.93667 6.60718
20701.00 1440.17 1.046778 43.8237 0.899911 13.7239 0.288368 0.197604 10.3933 0.0382942 17.0795 0.0234679 6.98021 6.55174
20601.00 1439.76 1.046723 43.86 0.899221 13.7451 0.290534 0.19615 10.3695 0.0379547 17.0581 0.0232526 7.02414 6.49598
20501.00 1439.34 1.046671 43.8964 0.898521 13.7661 0.29273 0.19469 10.3459 0.0376163 17.0367 0.023038 7.06845 6.4399
20401.00 1438.93 1.046622 43.9326 0.897811 13.787 0.294956 0.193223 10.3223 0.0372789 17.0154 0.0228242 7.11315 6.3835
20301.00 1438.51 1.046577 43.9689 0.897092 13.8077 0.297211 0.19175 10.2988 0.0369425 16.994 0.022611 7.15824 6.32679
20201.00 1438.09 1.046535 44.0052 0.896363 13.8283 0.299498 0.19027 10.2753 0.0366072 16.9726 0.0223987 7.20373 6.26976
20101.00 1437.67 1.046497 44.0414 0.895624 13.8487 0.301815 0.188784 10.2519 0.0362729 16.9513 0.0221871 7.24962 6.21242
20001.00 1437.24 1.046463 44.0776 0.894875 13.8689 0.304164 0.187293 10.2286 0.0359397 16.9299 0.0219762 7.29591 6.15478
19901.00 1436.82 1.046433 44.1137 0.894116 13.889 0.306545 0.185796 10.2054 0.0356075 16.9086 0.0217661 7.3426 6.09683
19801.00 1436.39 1.046406 44.1498 0.893345 13.909 0.308957 0.184295 10.1823 0.0352765 16.8872 0.0215568 7.38969 6.03858
19701.00 1435.97 1.046385 44.1859 0.892564 13.9288 0.311403 0.182788 10.1592 0.0349466 16.8659 0.0213483 7.4372 5.98003
19601.00 1435.54 1.046367 44.2219 0.891772 13.9484 0.313881 0.181276 10.1362 0.0346178 16.8445 0.0211406 7.48512 5.92119
19501.00 1435.11 1.046355 44.2579 0.890968 13.9679 0.316392 0.179761 10.1132 0.0342901 16.8231 0.0209337 7.53346 5.86205
19401.00 1434.68 1.046347 44.2938 0.890152 13.9872 0.318936 0.178241 10.0904 0.0339636 16.8018 0.0207275 7.58221 5.80263
19301.00 1434.24 1.046344 44.3297 0.889324 14.0063 0.321515 0.176717 10.0676 0.0336382 16.7804 0.0205223 7.63138 5.74293
19201.00 1433.81 1.046346 44.3655 0.888484 14.0253 0.324127 0.17519 10.0449 0.033314 16.759 0.0203178 7.68098 5.68294
19101.00 1433.37 1.046354 44.4013 0.887631 14.0441 0.326775 0.17366 10.0222 0.032991 16.7375 0.0201141 7.731 5.62268
19001.00 1432.93 1.046367 44.4369 0.886764 14.0628 0.329456 0.172126 9.99961 0.0326693 16.7161 0.0199113 7.78144 5.56215
18901.00 1432.49 1.046386 44.4726 0.885884 14.0813 0.332174 0.170591 9.97709 0.0323487 16.6946 0.0197094 7.83232 5.50136
18801.00 1432.05 1.046410 44.5081 0.88499 14.0997 0.334926 0.169052 9.95463 0.0320294 16.6732 0.0195083 7.88363 5.4403
18701.00 1431.60 1.046441 44.5436 0.884082 14.1178 0.337714 0.167512 9.93224 0.0317113 16.6517 0.019308 7.93537 5.37898
18601.00 1431.15 1.046479 44.579 0.883158 14.1359 0.340538 0.16597 9.90991 0.0313944 16.6301 0.0191087 7.98755 5.31741
18501.00 1430.70 1.046523 44.6143 0.882219 14.1537 0.343398 0.164426 9.88764 0.0310789 16.6085 0.0189102 8.04017 5.25559
18401.00 1430.25 1.046574 44.6496 0.881263 14.1714 0.346295 0.162882 9.86543 0.0307646 16.5869 0.0187126 8.09322 5.19353
18301.00 1429.80 1.046632 44.6847 0.880292 14.1889 0.349228 0.161336 9.84328 0.0304516 16.5653 0.0185158 8.14672 5.13123
18201.00 1429.34 1.046698 44.7198 0.879302 14.2063 0.352198 0.159791 9.82119 0.0301399 16.5436 0.01832 8.20066 5.06871
18101.00 1428.89 1.046771 44.7548 0.878295 14.2235 0.355204 0.158245 9.79915 0.0298295 16.5218 0.0181251 8.25504 5.00595
18001.00 1428.43 1.046853 44.7897 0.87727 14.2405 0.358248 0.156699 9.77716 0.0295205 16.5001 0.0179311 8.30987 4.94298
17901.00 1427.96 1.046942 44.8245 0.876225 14.2574 0.361329 0.155154 9.75523 0.0292129 16.4782 0.0177381 8.36515 4.8798
17801.00 1427.50 1.047041 44.8593 0.87516 14.2741 0.364447 0.15361 9.73334 0.0289066 16.4563 0.0175459 8.42087 4.8164
17701.00 1427.03 1.047148 44.8939 0.874074 14.2907 0.367603 0.152067 9.7115 0.0286016 16.4343 0.0173547 8.47704 4.75281
17601.00 1426.56 1.047264 44.9285 0.872967 14.3071 0.370796 0.150525 9.68971 0.0282981 16.4123 0.0171645 8.53366 4.68903
17501.00 1426.09 1.047390 44.963 0.871838 14.3233 0.374026 0.148986 9.66795 0.027996 16.3902 0.0169752 8.59073 4.62506
17401.00 1425.62 1.047527 44.9974 0.870685 14.3393 0.377294 0.147449 9.64623 0.0276952 16.368 0.0167869 8.64824 4.56092
17301.00 1425.14 1.047673 45.0317 0.869507 14.3552 0.380599 0.145914 9.62455 0.0273959 16.3457 0.0165995 8.70621 4.4966
17201.00 1424.66 1.047830 45.0659 0.868305 14.371 0.383941 0.144382 9.6029 0.0270981 16.3234 0.0164131 8.76462 4.43212
17101.00 1424.18 1.047999 45.1 0.867076 14.3865 0.387319 0.142854 9.58127 0.0268017 16.3009 0.0162277 8.82348 4.36749
17001.00 1423.69 1.048179 45.1341 0.865819 14.4019 0.390735 0.14133 9.55968 0.0265068 16.2784 0.0160433 8.88279 4.30271
16901.00 1423.20 1.048371 45.1681 0.864534 14.4172 0.394187 0.139809 9.5381 0.0262134 16.2557 0.0158599 8.94255 4.2378
16801.00 1422.71 1.048575 45.202 0.86322 14.4323 0.397675 0.138294 9.51654 0.0259215 16.2329 0.0156775 9.00275 4.17276
16701.00 1422.22 1.048793 45.2358 0.861874 14.4472 0.401199 0.136783 9.495 0.025631 16.2101 0.0154961 9.06339 4.1076
16601.00 1421.72 1.049024 45.2695 0.860496 14.462 0.404759 0.135277 9.47346 0.0253422 16.1871 0.0153157 9.12448 4.04233
16501.00 1421.22 1.049269 45.3032 0.859084 14.4766 0.408353 0.133777 9.45193 0.0250548 16.1639 0.0151363 9.186 3.97696
16401.00 1420.72 1.049528 45.3368 0.857637 14.4911 0.411982 0.132283 9.4304 0.024769 16.1407 0.014958 9.24796 3.9115
16301.00 1420.21 1.049803 45.3704 0.856153 14.5054 0.415644 0.130795 9.40886 0.0244848 16.1172 0.0147808 9.31036 3.84597
16201.00 1419.70 1.050093 45.4038 0.854631 14.5195 0.41934 0.129315 9.38731 0.0242022 16.0937 0.0146046 9.37318 3.78037
16101.00 1419.18 1.050399 45.4373 0.853069 14.5335 0.423068 0.127841 9.36575 0.0239211 16.07 0.0144295 9.43644 3.71471
16001.00 1418.67 1.050723 45.4707 0.851466 14.5474 0.426828 0.126375 9.34417 0.0236417 16.0461 0.0142554 9.50011 3.64901
15901.00 1418.15 1.051064 45.5041 0.849819 14.5611 0.430618 0.124918 9.32256 0.0233639 16.022 0.0140824 9.56421 3.58327
15801.00 1417.62 1.051422 45.5374 0.848127 14.5746 0.434438 0.123468 9.30092 0.0230878 15.9978 0.0139105 9.62871 3.51751
15701.00 1417.09 1.051800 45.5707 0.846387 14.588 0.438287 0.122028 9.27924 0.0228133 15.9734 0.0137397 9.69363 3.45175
15601.00 1416.56 1.052198 45.604 0.844599 14.6013 0.442164 0.120597 9.25751 0.0225404 15.9488 0.01357 9.75895 3.38599
15501.00 1416.02 1.052616 45.6373 0.842759 14.6144 0.446066 0.119175 9.23573 0.0222693 15.924 0.0134014 9.82467 3.32024
15401.00 1415.48 1.053055 45.6706 0.840865 14.6274 0.449994 0.117764 9.21389 0.0219999 15.8989 0.0132339 9.89077 3.25453
15301.00 1414.93 1.053515 45.7039 0.838916 14.6403 0.453945 0.116363 9.19198 0.0217322 15.8737 0.0130676 9.95726 3.18886
15201.00 1414.38 1.053999 45.7372 0.836908 14.653 0.457918 0.114974 9.17 0.0214662 15.8482 0.0129024 10.0241 3.12326
15101.00 1413.83 1.054506 45.7706 0.83484 14.6656 0.461911 0.113596 9.14794 0.021202 15.8225 0.0127383 10.0914 3.05773
15001.00 1413.27 1.055038 45.8041 0.832708 14.678 0.465922 0.112229 9.12578 0.0209395 15.7965 0.0125754 10.1589 2.99228
14901.00 1412.71 1.055595 45.8376 0.83051 14.6903 0.469951 0.110875 9.10353 0.0206788 15.7703 0.0124137 10.2269 2.92695
14801.00 1412.14 1.056179 45.8711 0.828243 14.7025 0.473994 0.109534 9.08116 0.02042 15.7438 0.0122531 10.2952 2.86173
14701.00 1411.56 1.056790 45.9048 0.825905 14.7146 0.478049 0.108206 9.05868 0.0201629 15.7171 0.0120937 10.3638 2.79666
14601.00 1410.98 1.057429 45.9386 0.823492 14.7265 0.482115 0.106892 9.03607 0.0199077 15.69 0.0119355 10.4327 2.73173
14501.00 1410.40 1.058098 45.9725 0.821001 14.7384 0.486188 0.105591 9.01332 0.0196543 15.6627 0.0117785 10.5019 2.66698
14401.00 1409.81 1.058797 46.0066 0.81843 14.7501 0.490266 0.104306 8.99042 0.0194028 15.6351 0.0116227 10.5714 2.60243
14301.00 1409.21 1.059528 46.0409 0.815774 14.7617 0.494348 0.103036 8.96737 0.0191532 15.6071 0.0114681 10.6412 2.53808
14201.00 1408.61 1.060291 46.0753 0.81303 14.7731 0.498428 0.101781 8.94414 0.0189055 15.5788 0.0113148 10.7112 2.47395
