Title: Depleted MORB Mantle of Workmann & Hart 2005

Liquid Composition:
Pressure Temperature mass SiO2 TiO2 Al2O3 Fe2O3 Cr2O3 FeO MnO MgO NiO CaO Na2O 
44001.00 1279.24 0.000000 ---
43901.00 1279.06 0.000000 ---
43801.00 1278.87 0.000000 ---
43701.00 1278.69 0.000000 ---
43601.00 1278.50 0.000000 ---
43501.00 1278.31 0.000000 ---
43401.00 1278.13 0.000000 ---
43301.00 1277.94 0.000000 ---
43201.00 1277.75 0.000000 ---
43101.00 1277.57 0.000000 ---
43001.00 1277.38 0.000000 ---
42901.00 1277.20 0.000000 ---
42801.00 1277.01 0.000000 ---
42701.00 1276.82 0.000000 ---
42601.00 1276.64 0.000000 ---
42501.00 1276.45 0.000000 ---
42401.00 1276.26 0.000000 ---
42301.00 1276.08 0.000000 ---
42201.00 1275.89 0.000000 ---
42101.00 1275.70 0.000000 ---
42001.00 1275.52 0.000000 ---
41901.00 1275.33 0.000000 ---
41801.00 1275.14 0.000000 ---
41701.00 1274.96 0.000000 ---
41601.00 1274.77 0.000000 ---
41501.00 1274.59 0.000000 ---
41401.00 1274.40 0.000000 ---
41301.00 1274.21 0.000000 ---
41201.00 1274.03 0.000000 ---
41101.00 1273.84 0.000000 ---
41001.00 1273.65 0.000000 ---
40901.00 1273.47 0.000000 ---
40801.00 1273.28 0.000000 ---
40701.00 1273.09 0.000000 ---
40601.00 1272.90 0.000000 ---
40501.00 1272.72 0.000000 ---
40401.00 1272.53 0.000000 ---
40301.00 1272.34 0.000000 ---
40201.00 1272.16 0.000000 ---
40101.00 1271.97 0.000000 ---
40001.00 1271.78 0.000000 ---
39901.00 1271.60 0.000000 ---
39801.00 1271.41 0.000000 ---
39701.00 1271.22 0.000000 ---
39601.00 1271.03 0.000000 ---
39501.00 1270.85 0.000000 ---
39401.00 1270.66 0.000000 ---
39301.00 1270.47 0.000000 ---
39201.00 1270.29 0.000000 ---
39101.00 1270.10 0.000000 ---
39001.00 1269.91 0.000000 ---
38901.00 1269.72 0.000000 ---
38801.00 1269.54 0.000000 ---
38701.00 1269.35 0.000000 ---
38601.00 1269.16 0.000000 ---
38501.00 1268.97 0.000000 ---
38401.00 1268.78 0.000000 ---
38301.00 1268.60 0.000000 ---
38201.00 1268.41 0.000000 ---
38101.00 1268.22 0.000000 ---
38001.00 1268.03 0.000000 ---
37901.00 1267.85 0.000000 ---
37801.00 1267.66 0.000000 ---
37701.00 1267.47 0.000000 ---
37601.00 1267.28 0.000000 ---
37501.00 1267.09 0.000000 ---
37401.00 1266.91 0.000000 ---
37301.00 1266.72 0.000000 ---
37201.00 1266.53 0.000000 ---
37101.00 1266.34 0.000000 ---
37001.00 1266.15 0.000000 ---
36901.00 1265.96 0.000000 ---
36801.00 1265.78 0.000000 ---
36701.00 1265.59 0.000000 ---
36601.00 1265.40 0.000000 ---
36501.00 1265.21 0.000000 ---
36401.00 1265.02 0.000000 ---
36301.00 1264.83 0.000000 ---
36201.00 1264.64 0.000000 ---
36101.00 1264.45 0.000000 ---
36001.00 1264.27 0.000000 ---
35901.00 1264.08 0.000000 ---
35801.00 1263.89 0.000000 ---
35701.00 1263.70 0.000000 ---
35601.00 1263.51 0.000000 ---
35501.00 1263.32 0.000000 ---
35401.00 1263.13 0.000000 ---
35301.00 1262.94 0.000000 ---
35201.00 1262.75 0.000000 ---
35101.00 1262.56 0.000000 ---
35001.00 1262.37 0.000000 ---
34901.00 1262.18 0.000000 ---
34801.00 1261.99 0.000000 ---
34701.00 1261.80 0.000000 ---
34601.00 1261.61 0.000000 ---
34501.00 1261.42 0.000000 ---
34401.00 1261.23 0.000000 ---
34301.00 1261.04 0.000000 ---
34201.00 1260.85 0.000000 ---
34101.00 1260.66 0.000000 ---
34001.00 1260.47 0.000000 ---
33901.00 1260.28 0.000000 ---
33801.00 1260.09 0.000000 ---
33701.00 1259.90 0.000000 ---
33601.00 1259.71 0.000000 ---
33501.00 1259.52 0.000000 ---
33401.00 1259.33 0.000000 ---
33301.00 1259.14 0.000000 ---
33201.00 1258.94 0.000000 ---
33101.00 1258.75 0.000000 ---
33001.00 1258.56 0.000000 ---
32901.00 1258.37 0.000000 ---
32801.00 1258.18 0.000000 ---
32701.00 1257.99 0.000000 ---
32601.00 1257.79 0.000000 ---
32501.00 1257.60 0.000000 ---
32401.00 1257.41 0.000000 ---
32301.00 1257.22 0.000000 ---
32201.00 1257.03 0.000000 ---
32101.00 1256.83 0.000000 ---
32001.00 1256.64 0.000000 ---
31901.00 1256.45 0.000000 ---
31801.00 1256.26 0.000000 ---
31701.00 1256.06 0.000000 ---
31601.00 1255.87 0.000000 ---
31501.00 1255.68 0.000000 ---
31401.00 1255.48 0.000000 ---
31301.00 1255.29 0.000000 ---
31201.00 1255.10 0.000000 ---
31101.00 1254.90 0.000000 ---
31001.00 1254.71 0.000000 ---
30901.00 1254.51 0.000000 ---
30801.00 1254.32 0.000000 ---
30701.00 1254.13 0.000000 ---
30601.00 1253.93 0.000000 ---
30501.00 1253.74 0.000000 ---
30401.00 1253.54 0.000000 ---
30301.00 1253.35 0.000000 ---
30201.00 1253.15 0.000000 ---
30101.00 1252.96 0.000000 ---
30001.00 1252.76 0.000000 ---
29901.00 1252.57 0.000000 ---
29801.00 1252.37 0.000000 ---
29701.00 1252.17 0.000000 ---
29601.00 1251.98 0.000000 ---
29501.00 1251.78 0.000000 ---
29401.00 1251.58 0.000000 ---
29301.00 1251.39 0.000000 ---
29201.00 1251.19 0.000000 ---
29101.00 1250.99 0.000000 ---
29001.00 1250.80 0.000000 ---
28901.00 1250.60 0.000000 ---
28801.00 1250.40 0.000000 ---
28701.00 1250.20 0.000000 ---
28601.00 1250.01 0.000000 ---
28501.00 1249.81 0.000000 ---
28401.00 1249.61 0.000000 ---
28301.00 1249.41 0.000000 ---
28201.00 1249.21 0.000000 ---
28101.00 1249.01 0.000000 ---
28001.00 1248.81 0.000000 ---
27901.00 1248.61 0.000000 ---
27801.00 1248.41 0.000000 ---
27701.00 1248.21 0.000000 ---
27601.00 1248.01 0.000000 ---
27501.00 1247.81 0.000000 ---
27401.00 1247.61 0.000000 ---
27301.00 1247.41 0.000000 ---
27201.00 1247.21 0.000000 ---
27101.00 1247.00 0.000000 ---
27001.00 1246.80 0.000000 ---
26901.00 1246.60 0.000000 ---
26801.00 1246.40 0.000000 ---
26701.00 1246.19 0.000000 ---
26601.00 1245.99 0.000000 ---
26501.00 1245.79 0.000000 ---
26401.00 1245.58 0.000000 ---
26301.00 1245.38 0.000000 ---
26201.00 1245.17 0.000000 ---
26101.00 1244.97 0.000000 ---
26001.00 1244.76 0.000000 ---
25901.00 1244.56 0.000000 ---
25801.00 1244.35 0.000000 ---
25701.00 1244.15 0.000000 ---
25601.00 1243.94 0.000000 ---
25501.00 1243.73 0.000000 ---
25401.00 1243.52 0.000000 ---
25301.00 1243.32 0.000000 ---
25201.00 1243.11 0.000000 ---
25101.00 1242.90 0.000000 ---
25001.00 1242.69 0.000000 ---
24901.00 1242.48 0.000000 ---
24801.00 1242.27 0.000000 ---
24701.00 1242.06 0.000000 ---
24601.00 1241.85 0.000000 ---
24501.00 1241.64 0.000000 ---
24401.00 1241.42 0.000000 ---
24301.00 1241.21 0.000000 ---
24201.00 1241.00 0.000000 ---
24101.00 1240.78 0.000000 ---
24001.00 1240.57 0.000000 ---
23901.00 1240.36 0.000000 ---
23801.00 1240.14 0.000000 ---
23701.00 1239.92 0.000000 ---
23601.00 1239.71 0.000000 ---
23501.00 1239.49 0.000000 ---
23401.00 1239.27 0.000000 ---
23301.00 1239.06 0.000000 ---
23201.00 1238.84 0.000000 ---
23101.00 1238.62 0.000000 ---
23001.00 1238.40 0.000000 ---
22901.00 1238.18 0.000000 ---
22801.00 1237.95 0.000000 ---
22701.00 1237.73 0.000000 ---
22601.00 1237.51 0.000000 ---
22501.00 1237.29 0.000000 ---
22401.00 1237.06 0.000000 ---
22301.00 1236.84 0.000000 ---
22201.00 1236.61 0.000000 ---
22101.00 1236.38 0.000000 ---
22001.00 1236.16 0.000000 ---
21901.00 1235.93 0.000000 ---
21801.00 1235.70 0.000000 ---
21701.00 1235.47 0.000000 ---
21601.00 1235.24 0.000000 ---
21501.00 1235.00 0.000000 ---
21401.00 1234.77 0.000000 ---
21301.00 1234.54 0.000000 ---
21201.00 1234.30 0.000000 ---
21101.00 1234.06 0.000000 ---
21001.00 1233.83 0.000000 ---
20901.00 1233.59 0.000000 ---
20801.00 1233.35 0.000000 ---
20701.00 1233.10 0.000000 ---
20601.00 1232.86 0.000000 ---
20501.00 1232.62 0.000000 ---
20401.00 1232.37 0.000000 ---
20301.00 1232.13 0.000000 ---
20201.00 1231.88 0.000000 ---
20101.00 1231.63 0.000000 ---
20001.00 1231.38 0.000000 ---
19901.00 1231.12 0.000000 ---
19801.00 1230.87 0.000000 ---
19701.00 1230.61 0.000000 ---
19601.00 1230.36 0.000000 ---
19501.00 1230.10 0.000000 ---
19401.00 1229.83 0.000000 ---
19301.00 1229.57 0.000000 ---
19201.00 1229.30 0.000000 ---
19101.00 1229.03 0.000000 ---
19001.00 1228.76 0.000000 ---
18901.00 1228.49 0.000000 ---
18801.00 1228.22 0.000000 ---
18701.00 1227.94 0.000000 ---
18601.00 1227.66 0.000000 ---
18501.00 1227.37 0.000000 ---
18401.00 1227.09 0.000000 ---
18301.00 1226.80 0.000000 ---
18201.00 1226.51 0.000000 ---
18101.00 1226.21 0.000000 ---
18001.00 1225.91 0.000000 ---
17901.00 1225.64 0.000000 ---
17801.00 1225.47 0.000000 ---
17701.00 1225.30 0.000000 ---
17601.00 1225.13 0.000000 ---
17501.00 1224.95 0.000000 ---
17401.00 1224.78 0.000000 ---
17301.00 1224.61 0.000000 ---
17201.00 1224.43 0.000000 ---
17101.00 1224.26 0.000000 ---
17001.00 1224.09 0.000000 ---
16901.00 1223.92 0.000000 ---
16801.00 1223.74 0.000000 ---
16701.00 1223.57 0.000000 ---
16601.00 1223.40 0.000000 ---
16501.00 1223.22 0.000000 ---
16401.00 1223.05 0.000000 ---
16301.00 1222.88 0.000000 ---
16201.00 1222.71 0.000000 ---
16101.00 1222.53 0.000000 ---
16001.00 1222.36 0.000000 ---
15901.00 1222.19 0.000000 ---
15801.00 1222.01 0.000000 ---
15701.00 1221.84 0.000000 ---
15601.00 1221.67 0.000000 ---
15501.00 1221.50 0.000000 ---
15401.00 1221.32 0.000000 ---
15301.00 1221.15 0.000000 ---
15201.00 1220.98 0.000000 ---
15101.00 1220.80 0.000000 ---
15001.00 1220.63 0.000000 ---
14901.00 1220.46 0.000000 ---
14801.00 1220.29 0.000000 ---
14701.00 1220.11 0.000000 ---
14601.00 1219.94 0.000000 ---
14501.00 1219.77 0.000000 ---
14401.00 1219.60 0.000000 ---
14301.00 1219.42 0.000000 ---
14201.00 1219.25 0.000000 ---
14101.00 1219.08 0.000000 ---
14001.00 1218.91 0.000000 ---
13901.00 1218.73 0.000000 ---
13801.00 1218.56 0.000000 ---
13701.00 1218.39 0.000000 ---
13601.00 1218.21 0.000000 ---
13501.00 1218.04 0.000000 ---
13401.00 1217.87 0.000000 ---
13301.00 1217.70 0.000000 ---
13201.00 1217.52 0.000000 ---
13101.00 1217.35 0.000000 ---
13001.00 1217.18 0.000000 ---
12901.00 1217.01 0.000000 ---
12801.00 1216.83 0.000000 ---
12701.00 1216.66 0.000000 ---
12601.00 1216.49 0.000000 ---
12501.00 1216.32 0.000000 ---
12401.00 1216.14 0.000000 ---
12301.00 1215.97 0.000000 ---
12201.00 1215.80 0.000000 ---
12101.00 1215.62 0.000000 ---
12001.00 1215.45 0.000000 ---
11901.00 1215.28 0.000000 ---
11801.00 1215.11 0.000000 ---
11701.00 1214.93 0.000000 ---
11601.00 1214.76 0.000000 ---
11501.00 1214.59 0.000000 ---
11401.00 1214.42 0.000000 ---
11301.00 1214.24 0.000000 ---
11201.00 1214.07 0.000000 ---
11101.00 1213.90 0.000000 ---
11001.00 1213.73 0.000000 ---
10901.00 1213.55 0.000000 ---
10801.00 1213.38 0.000000 ---
10701.00 1213.21 0.000000 ---
10601.00 1213.04 0.000000 ---
10501.00 1212.86 0.000000 ---
10401.00 1212.69 0.000000 ---
10301.00 1212.52 0.000000 ---
10201.00 1212.34 0.000000 ---
10101.00 1212.17 0.000000 ---
10001.00 1212.00 0.000000 ---
9901.00 1211.79 0.009600 54.9118 0.53478 19.6375 0.0670293 0.298539 3.15752 0.0107484 6.37386 0.00563482 3.65181 11.3508
9801.00 1211.46 0.052550 54.9779 0.533673 19.6466 0.0681178 0.293076 3.15256 0.0105873 6.37702 0.00554797 3.70499 11.2299
9701.00 1211.14 0.096189 55.0433 0.532621 19.6554 0.0692376 0.287673 3.14781 0.0104276 6.38052 0.00546193 3.75917 11.1084
9601.00 1210.81 0.140547 55.1079 0.531623 19.6638 0.0703902 0.282329 3.14326 0.0102693 6.38435 0.00537668 3.81439 10.9864
9501.00 1210.48 0.185655 55.1716 0.530681 19.6718 0.0715768 0.277045 3.13893 0.0101124 6.38853 0.00529223 3.87066 10.8637
9401.00 1210.72 0.000000 ---
9301.00 1210.49 0.000000 ---
9201.00 1210.26 0.000000 ---
9101.00 1210.03 0.000000 ---
9001.00 1209.80 0.000000 ---
8901.00 1209.57 0.000000 ---
8801.00 1209.34 0.000000 ---
8701.00 1209.11 0.000000 ---
8601.00 1208.88 0.000000 ---
8501.00 1208.66 0.000000 ---
8401.00 1208.43 0.000000 ---
8301.00 1208.20 0.000000 ---
8201.00 1207.98 0.000000 ---
8101.00 1207.75 0.000000 ---
8001.00 1207.52 0.000000 ---
7901.00 1207.30 0.000000 ---
7801.00 1207.07 0.000000 ---
7701.00 1206.84 0.000000 ---
7601.00 1206.62 0.000000 ---
7501.00 1206.39 0.000000 ---
7401.00 1206.16 0.000000 ---
7301.00 1205.94 0.000000 ---
7201.00 1205.71 0.000000 ---
7101.00 1205.48 0.000000 ---
7001.00 1205.25 0.000000 ---
6901.00 1205.02 0.000000 ---
6801.00 1204.79 0.000000 ---
6701.00 1204.56 0.000000 ---
6601.00 1204.33 0.000000 ---
6501.00 1204.10 0.000000 ---
6401.00 1203.87 0.000000 ---
6301.00 1203.64 0.000000 ---
6201.00 1203.41 0.000000 ---
6101.00 1203.17 0.000000 ---
6001.00 1202.94 0.000000 ---
5901.00 1202.70 0.000000 ---
5801.00 1202.46 0.000000 ---
5701.00 1202.23 0.000000 ---
5601.00 1201.99 0.000000 ---
5501.00 1201.75 0.000000 ---
5401.00 1201.51 0.000000 ---
5301.00 1201.27 0.000000 ---
5201.00 1201.03 0.000000 ---
5101.00 1200.79 0.000000 ---
5001.00 1200.55 0.000000 ---
4901.00 1200.30 0.000000 ---
4801.00 1200.06 0.000000 ---
4701.00 1199.82 0.000000 ---
4601.00 1199.58 0.000000 ---
4501.00 1199.33 0.000000 ---
4401.00 1199.09 0.000000 ---
4301.00 1198.85 0.000000 ---
4201.00 1198.61 0.000000 ---
4101.00 1197.91 0.185897 55.9804 0.991268 18.3686 0.431474 0.098161 3.72963 0.00410006 7.61696 0.0021028 9.79876 2.97854
4001.00 1196.70 0.580030 56.0293 0.982402 18.3469 0.439712 0.096829 3.71597 0.00401251 7.60528 0.00205543 9.88567 2.89189
3901.00 1195.45 0.989984 56.0821 0.972839 18.3248 0.447692 0.0955941 3.70098 0.00392649 7.59201 0.0020089 9.96963 2.80841
3801.00 1194.18 1.415830 56.139 0.962585 18.3022 0.45538 0.0944508 3.6847 0.00384203 7.57718 0.00196319 10.0506 2.72807
3701.00 1192.87 1.433395 56.1984 0.951352 18.2799 0.462819 0.0933252 3.66761 0.00375864 7.5613 0.00191811 10.1302 2.64948
3601.00 1191.55 1.438946 56.2602 0.939126 18.2578 0.469993 0.0922132 3.64977 0.00367631 7.54444 0.00187362 10.2083 2.57254
3501.00 1190.19 1.444161 56.3244 0.925909 18.2361 0.476879 0.0911128 3.6312 0.00359503 7.52662 0.00182975 10.2852 2.49717
3401.00 1188.82 1.449040 56.391 0.911705 18.2146 0.483458 0.0900219 3.61194 0.00351481 7.50789 0.00178648 10.3608 2.4233
3301.00 1187.42 1.453584 56.4598 0.896524 18.1934 0.489712 0.0889384 3.59204 0.00343563 7.48828 0.00174381 10.4352 2.35084
3201.00 1186.00 1.457796 56.5308 0.880377 18.1726 0.495624 0.08786 3.57154 0.00335749 7.46784 0.00170175 10.5085 2.27972
3101.00 1184.56 1.461675 56.6039 0.863285 18.1522 0.501177 0.0867847 3.55047 0.00328037 7.44662 0.00166028 10.5808 2.20984
3001.00 1183.10 1.465222 56.6789 0.84527 18.1321 0.506357 0.0857103 3.5289 0.00320429 7.42465 0.00161941 10.6522 2.14109
2901.00 1181.62 1.468436 56.7558 0.826362 18.1124 0.511151 0.0846346 3.50686 0.00312921 7.402 0.00157913 10.7227 2.07338
2801.00 1180.11 1.471313 56.8343 0.806595 18.0931 0.515548 0.0835554 3.48441 0.00305513 7.3787 0.00153944 10.7926 2.0066
2701.00 1178.59 1.473851 56.9143 0.786011 18.0742 0.51954 0.0824705 3.46161 0.00298204 7.35482 0.00150033 10.8619 1.94063
2601.00 1177.05 1.476041 56.9956 0.764655 18.0559 0.523119 0.0813776 3.43851 0.00290993 7.33041 0.00146179 10.9307 1.87533
2501.00 1175.49 1.477874 57.078 0.74258 18.038 0.526282 0.0802743 3.41518 0.00283878 7.30554 0.00142383 10.9993 1.81059
2401.00 1173.91 1.479336 57.1612 0.719846 18.0206 0.529026 0.0791582 3.39168 0.00276858 7.28027 0.00138642 11.0678 1.74625
2301.00 1172.31 1.480409 57.2449 0.696515 18.0037 0.531353 0.0780269 3.36808 0.00269931 7.25466 0.00134957 11.1365 1.68216
2201.00 1170.70 1.481070 57.3289 0.67266 17.9875 0.533266 0.0768775 3.34446 0.00263095 7.2288 0.00131327 11.2054 1.61815
2101.00 1169.07 1.481286 57.4128 0.648357 17.9718 0.534773 0.0757072 3.32089 0.00256349 7.20276 0.0012775 11.275 1.55405
2001.00 1167.43 1.481018 57.4963 0.623686 17.9567 0.535884 0.0745131 3.29747 0.00249691 7.17663 0.00124226 11.3454 1.48965
1901.00 1165.77 1.480218 57.5789 0.598737 17.9423 0.536614 0.0732918 3.27428 0.00243118 7.15051 0.00120754 11.417 1.42474
1801.00 1164.10 1.478825 57.6602 0.5736 17.9285 0.536982 0.0720398 3.25143 0.00236627 7.12449 0.00117333 11.4901 1.35908
1701.00 1162.42 1.476764 57.7396 0.548374 17.9155 0.53701 0.0707534 3.22903 0.00230218 7.09868 0.0011396 11.5651 1.29243
1601.00 1160.73 1.473947 57.8168 0.523159 17.9032 0.536726 0.0694283 3.20719 0.00223885 7.07322 0.00110636 11.6425 1.2245
1501.00 1159.03 1.470267 57.8909 0.498062 17.8916 0.536164 0.0680602 3.18605 0.00217628 7.04823 0.00107359 11.7227 1.15498
1401.00 1157.33 1.465601 57.9615 0.473188 17.8808 0.535362 0.0666444 3.16576 0.00211443 7.02385 0.00104128 11.8062 1.08354
1301.00 1155.62 1.459809 58.0278 0.448651 17.8707 0.534367 0.0651762 3.14647 0.00205328 7.00024 0.00100941 11.8937 1.00981
1201.00 1153.92 1.452737 58.089 0.424559 17.8614 0.533228 0.0636507 3.12836 0.00199279 6.97757 0.000977968 11.9858 0.93342
1101.00 1152.22 1.444231 58.1444 0.401024 17.8529 0.532004 0.0620635 3.1116 0.00193295 6.956 0.000946954 12.0832 0.853956
1001.00 1150.53 1.434146 58.193 0.378153 17.8451 0.530758 0.0604108 3.09639 0.00187375 6.93572 0.000916361 12.1867 0.771021
901.00 1148.85 1.422385 58.2342 0.356044 17.8378 0.529555 0.0586902 3.08292 0.00181519 6.91688 0.000886192 12.2969 0.684236
801.00 1147.20 1.408947 58.2672 0.334786 17.8311 0.528459 0.0569018 3.07135 0.0017573 6.89963 0.000856459 12.4146 0.593292
701.00 1146.08 1.188327 58.3057 0.325901 17.776 0.535394 0.0555887 3.06899 0.00172172 6.89467 0.000838096 12.5278 0.507405
601.00 1145.27 1.064567 58.3609 0.32378 17.6882 0.546465 0.0547037 3.0696 0.00170179 6.89472 0.000827618 12.6268 0.432337
501.00 1144.44 1.065485 58.4326 0.321087 17.5944 0.556521 0.0540122 3.06752 0.001686 6.89234 0.000819167 12.7124 0.366687
401.00 1143.62 1.063733 58.5204 0.317876 17.4941 0.565512 0.0534942 3.06298 0.00167443 6.88787 0.000812777 12.7852 0.310041
301.00 1142.81 1.059221 58.6238 0.314225 17.3874 0.573424 0.0531266 3.05628 0.00166709 6.8817 0.000808449 12.8458 0.261764
201.00 1142.00 1.052088 58.7415 0.310225 17.2741 0.580281 0.0528838 3.0478 0.0016639 6.87427 0.000806154 12.8954 0.22106
101.00 1141.22 1.042681 58.8722 0.30597 17.1543 0.586136 0.0527401 3.03792 0.00166476 6.866 0.000805835 12.9352 0.187036
1.00 1140.46 1.031489 59.0143 0.301552 17.0284 0.591065 0.0526709 3.02702 0.00166951 6.85733 0.000807414 12.9664 0.158775