Title: Depleted MORB Mantle of Workmann & Hart 2005

System Thermodynamic Data:
Pressure Temperature mass F phi S H V Cp dVdP*10^6 dVdT*10^6 fO2(absolute) fO2(absolute) rhol rhos viscosity aH2O chisqr
44001.00 1279.24 100.138999 0.0000000000000000 0.000000 243.562270 -1167026.493246 29.999278 123.934240 -19.864528 1388.863735 -6.775 -6.775 0.000000 3.338047 0.000 0 0.000
43901.00 1279.06 100.138999 0.0000000000000000 0.000000 243.562270 -1167326.495603 30.001194 123.940267 -19.871469 1388.799065 -6.779 -6.779 0.000000 3.337834 0.000 0 0.000
43801.00 1278.87 100.138999 0.0000000000000000 0.000000 243.562270 -1167626.517135 30.003113 123.946294 -19.878414 1388.734523 -6.784 -6.784 0.000000 3.337620 0.000 0 0.000
43701.00 1278.69 100.138999 0.0000000000000000 0.000000 243.562270 -1167926.557863 30.005033 123.952321 -19.885363 1388.670108 -6.789 -6.789 0.000000 3.337407 0.000 0 0.000
43601.00 1278.50 100.138999 0.0000000000000000 0.000000 243.562270 -1168226.617805 30.006956 123.958348 -19.892316 1388.605824 -6.793 -6.793 0.000000 3.337193 0.000 0 0.000
43501.00 1278.31 100.138999 0.0000000000000000 0.000000 243.562270 -1168526.696982 30.008880 123.964374 -19.899274 1388.541669 -6.798 -6.798 0.000000 3.336979 0.000 0 0.000
43401.00 1278.13 100.138999 0.0000000000000000 0.000000 243.562270 -1168826.795413 30.010807 123.970401 -19.906236 1388.477647 -6.803 -6.803 0.000000 3.336765 0.000 0 0.000
43301.00 1277.94 100.138999 0.0000000000000000 0.000000 243.562270 -1169126.913118 30.012735 123.976427 -19.913202 1388.413757 -6.807 -6.807 0.000000 3.336550 0.000 0 0.000
43201.00 1277.75 100.138999 0.0000000000000000 0.000000 243.562270 -1169427.050119 30.014665 123.982454 -19.920172 1388.350000 -6.812 -6.812 0.000000 3.336336 0.000 0 0.000
43101.00 1277.57 100.138999 0.0000000000000000 0.000000 243.562270 -1169727.206433 30.016598 123.988480 -19.927147 1388.286379 -6.817 -6.817 0.000000 3.336121 0.000 0 0.000
43001.00 1277.38 100.138999 0.0000000000000000 0.000000 243.562270 -1170027.382084 30.018532 123.994507 -19.934126 1388.222893 -6.821 -6.821 0.000000 3.335906 0.000 0 0.000
42901.00 1277.20 100.138999 0.0000000000000000 0.000000 243.562270 -1170327.577089 30.020469 124.000533 -19.941110 1388.159545 -6.826 -6.826 0.000000 3.335691 0.000 0 0.000
42801.00 1277.01 100.138999 0.0000000000000000 0.000000 243.562270 -1170627.791471 30.022408 124.006560 -19.948098 1388.096334 -6.831 -6.831 0.000000 3.335475 0.000 0 0.000
42701.00 1276.82 100.138999 0.0000000000000000 0.000000 243.562270 -1170928.025250 30.024348 124.012586 -19.955091 1388.033263 -6.836 -6.836 0.000000 3.335260 0.000 0 0.000
42601.00 1276.64 100.138999 0.0000000000000000 0.000000 243.562270 -1171228.278447 30.026291 124.018613 -19.962088 1387.970332 -6.840 -6.840 0.000000 3.335044 0.000 0 0.000
42501.00 1276.45 100.138999 0.0000000000000000 0.000000 243.562270 -1171528.551083 30.028236 124.024640 -19.969090 1387.907542 -6.845 -6.845 0.000000 3.334828 0.000 0 0.000
42401.00 1276.26 100.138999 0.0000000000000000 0.000000 243.562270 -1171828.843179 30.030183 124.030667 -19.976097 1387.844896 -6.850 -6.850 0.000000 3.334612 0.000 0 0.000
42301.00 1276.08 100.138999 0.0000000000000000 0.000000 243.562270 -1172129.154756 30.032132 124.036694 -19.983108 1387.782393 -6.855 -6.855 0.000000 3.334395 0.000 0 0.000
42201.00 1275.89 100.138999 0.0000000000000000 0.000000 243.562270 -1172429.485836 30.034084 124.042721 -19.990124 1387.720036 -6.860 -6.860 0.000000 3.334179 0.000 0 0.000
42101.00 1275.70 100.138999 0.0000000000000000 0.000000 243.562270 -1172729.836440 30.036037 124.048748 -19.997145 1387.657825 -6.864 -6.864 0.000000 3.333962 0.000 0 0.000
42001.00 1275.52 100.138999 0.0000000000000000 0.000000 243.562270 -1173030.206590 30.037993 124.054776 -20.004171 1387.595761 -6.869 -6.869 0.000000 3.333745 0.000 0 0.000
41901.00 1275.33 100.138999 0.0000000000000000 0.000000 243.562270 -1173330.596307 30.039951 124.060803 -20.011201 1387.533847 -6.874 -6.874 0.000000 3.333527 0.000 0 0.000
41801.00 1275.14 100.138999 0.0000000000000000 0.000000 243.562270 -1173631.005614 30.041911 124.066831 -20.018237 1387.472083 -6.879 -6.879 0.000000 3.333310 0.000 0 0.000
41701.00 1274.96 100.138999 0.0000000000000000 0.000000 243.562270 -1173931.434533 30.043873 124.072860 -20.025277 1387.410470 -6.884 -6.884 0.000000 3.333092 0.000 0 0.000
41601.00 1274.77 100.138999 0.0000000000000000 0.000000 243.562270 -1174231.883086 30.045838 124.078888 -20.032323 1387.349010 -6.889 -6.889 0.000000 3.332874 0.000 0 0.000
41501.00 1274.59 100.138999 0.0000000000000000 0.000000 243.562270 -1174532.351296 30.047805 124.084917 -20.039373 1387.287704 -6.894 -6.894 0.000000 3.332656 0.000 0 0.000
41401.00 1274.40 100.138999 0.0000000000000000 0.000000 243.562270 -1174832.839184 30.049774 124.090946 -20.046429 1387.226554 -6.899 -6.899 0.000000 3.332438 0.000 0 0.000
41301.00 1274.21 100.138999 0.0000000000000000 0.000000 243.562270 -1175133.346774 30.051745 124.096975 -20.053490 1387.165560 -6.904 -6.904 0.000000 3.332219 0.000 0 0.000
41201.00 1274.03 100.138999 0.0000000000000000 0.000000 243.562270 -1175433.874088 30.053718 124.103005 -20.060556 1387.104725 -6.909 -6.909 0.000000 3.332000 0.000 0 0.000
41101.00 1273.84 100.138999 0.0000000000000000 0.000000 243.562270 -1175734.421150 30.055694 124.109035 -20.067628 1387.044050 -6.913 -6.913 0.000000 3.331781 0.000 0 0.000
41001.00 1273.65 100.138999 0.0000000000000000 0.000000 243.562270 -1176034.987983 30.057673 124.115065 -20.074704 1386.983536 -6.918 -6.918 0.000000 3.331562 0.000 0 0.000
40901.00 1273.47 100.138999 0.0000000000000000 0.000000 243.562270 -1176335.574609 30.059653 124.121096 -20.081786 1386.923184 -6.923 -6.923 0.000000 3.331342 0.000 0 0.000
40801.00 1273.28 100.138999 0.0000000000000000 0.000000 243.562270 -1176636.181053 30.061636 124.127127 -20.088874 1386.862996 -6.928 -6.928 0.000000 3.331123 0.000 0 0.000
40701.00 1273.09 100.138999 0.0000000000000000 0.000000 243.562270 -1176936.807338 30.063621 124.133159 -20.095967 1386.802974 -6.933 -6.933 0.000000 3.330903 0.000 0 0.000
40601.00 1272.90 100.138999 0.0000000000000000 0.000000 243.562270 -1177237.453488 30.065609 124.139191 -20.103065 1386.743118 -6.939 -6.939 0.000000 3.330683 0.000 0 0.000
40501.00 1272.72 100.138999 0.0000000000000000 0.000000 243.562270 -1177538.119527 30.067599 124.145224 -20.110169 1386.683432 -6.944 -6.944 0.000000 3.330462 0.000 0 0.000
40401.00 1272.53 100.138999 0.0000000000000000 0.000000 243.562270 -1177838.805479 30.069592 124.151257 -20.117279 1386.623915 -6.949 -6.949 0.000000 3.330241 0.000 0 0.000
40301.00 1272.34 100.138999 0.0000000000000000 0.000000 243.562270 -1178139.511369 30.071587 124.157291 -20.124394 1386.564570 -6.954 -6.954 0.000000 3.330020 0.000 0 0.000
40201.00 1272.16 100.138999 0.0000000000000000 0.000000 243.562270 -1178440.237220 30.073584 124.163325 -20.131515 1386.505399 -6.959 -6.959 0.000000 3.329799 0.000 0 0.000
40101.00 1271.97 100.138999 0.0000000000000000 0.000000 243.562270 -1178740.983058 30.075584 124.169360 -20.138642 1386.446402 -6.964 -6.964 0.000000 3.329578 0.000 0 0.000
40001.00 1271.78 100.138999 0.0000000000000000 0.000000 243.562270 -1179041.748908 30.077586 124.175396 -20.145775 1386.387582 -6.969 -6.969 0.000000 3.329356 0.000 0 0.000
39901.00 1271.60 100.138999 0.0000000000000000 0.000000 243.562270 -1179342.534793 30.079591 124.181432 -20.152913 1386.328939 -6.974 -6.974 0.000000 3.329134 0.000 0 0.000
39801.00 1271.41 100.138999 0.0000000000000000 0.000000 243.562270 -1179643.340741 30.081599 124.187469 -20.160058 1386.270477 -6.979 -6.979 0.000000 3.328912 0.000 0 0.000
39701.00 1271.22 100.138999 0.0000000000000000 0.000000 243.562270 -1179944.166776 30.083609 124.193507 -20.167209 1386.212197 -6.984 -6.984 0.000000 3.328690 0.000 0 0.000
39601.00 1271.03 100.138999 0.0000000000000000 0.000000 243.562270 -1180245.012924 30.085621 124.199545 -20.174365 1386.154100 -6.990 -6.990 0.000000 3.328467 0.000 0 0.000
39501.00 1270.85 100.138999 0.0000000000000000 0.000000 243.562270 -1180545.879210 30.087636 124.205584 -20.181528 1386.096188 -6.995 -6.995 0.000000 3.328244 0.000 0 0.000
39401.00 1270.66 100.138999 0.0000000000000000 0.000000 243.562270 -1180846.765661 30.089654 124.211624 -20.188697 1386.038463 -7.000 -7.000 0.000000 3.328021 0.000 0 0.000
39301.00 1270.47 100.138999 0.0000000000000000 0.000000 243.562270 -1181147.672303 30.091675 124.217664 -20.195873 1385.980926 -7.005 -7.005 0.000000 3.327797 0.000 0 0.000
39201.00 1270.29 100.138999 0.0000000000000000 0.000000 243.562270 -1181448.599162 30.093698 124.223706 -20.203054 1385.923580 -7.011 -7.011 0.000000 3.327574 0.000 0 0.000
39101.00 1270.10 100.138999 0.0000000000000000 0.000000 243.562270 -1181749.546265 30.095723 124.229748 -20.210242 1385.866427 -7.016 -7.016 0.000000 3.327350 0.000 0 0.000
39001.00 1269.91 100.138999 0.0000000000000000 0.000000 243.562270 -1182050.513639 30.097752 124.235792 -20.217437 1385.809468 -7.021 -7.021 0.000000 3.327126 0.000 0 0.000
38901.00 1269.72 100.138999 0.0000000000000000 0.000000 243.562270 -1182351.501310 30.099783 124.241836 -20.224638 1385.752705 -7.026 -7.026 0.000000 3.326901 0.000 0 0.000
38801.00 1269.54 100.138999 0.0000000000000000 0.000000 243.562270 -1182652.509307 30.101817 124.247881 -20.231845 1385.696141 -7.032 -7.032 0.000000 3.326676 0.000 0 0.000
38701.00 1269.35 100.138999 0.0000000000000000 0.000000 243.562270 -1182953.537656 30.103853 124.253927 -20.239060 1385.639777 -7.037 -7.037 0.000000 3.326451 0.000 0 0.000
38601.00 1269.16 100.138999 0.0000000000000000 0.000000 243.562270 -1183254.586386 30.105893 124.259974 -20.246281 1385.583615 -7.042 -7.042 0.000000 3.326226 0.000 0 0.000
38501.00 1268.97 100.138999 0.0000000000000000 0.000000 243.562270 -1183555.655523 30.107935 124.266023 -20.253508 1385.527658 -7.048 -7.048 0.000000 3.326000 0.000 0 0.000
38401.00 1268.78 100.138999 0.0000000000000000 0.000000 243.562270 -1183856.745097 30.109980 124.272072 -20.260743 1385.471906 -7.053 -7.053 0.000000 3.325774 0.000 0 0.000
38301.00 1268.60 100.138999 0.0000000000000000 0.000000 243.562270 -1184157.855136 30.112028 124.278122 -20.267985 1385.416364 -7.058 -7.058 0.000000 3.325548 0.000 0 0.000
38201.00 1268.41 100.138999 0.0000000000000000 0.000000 243.562270 -1184458.985668 30.114079 124.284174 -20.275233 1385.361032 -7.064 -7.064 0.000000 3.325322 0.000 0 0.000
38101.00 1268.22 100.138999 0.0000000000000000 0.000000 243.562270 -1184760.136723 30.116133 124.290227 -20.282489 1385.305913 -7.069 -7.069 0.000000 3.325095 0.000 0 0.000
38001.00 1268.03 100.138999 0.0000000000000000 0.000000 243.562270 -1185061.308329 30.118189 124.296281 -20.289752 1385.251009 -7.075 -7.075 0.000000 3.324868 0.000 0 0.000
37901.00 1267.85 100.138999 0.0000000000000000 0.000000 243.562270 -1185362.500515 30.120249 124.302336 -20.297022 1385.196323 -7.080 -7.080 0.000000 3.324641 0.000 0 0.000
37801.00 1267.66 100.138999 0.0000000000000000 0.000000 243.562270 -1185663.713312 30.122311 124.308393 -20.304300 1385.141856 -7.085 -7.085 0.000000 3.324413 0.000 0 0.000
37701.00 1267.47 100.138999 0.0000000000000000 0.000000 243.562270 -1185964.946750 30.124377 124.314451 -20.311585 1385.087611 -7.091 -7.091 0.000000 3.324185 0.000 0 0.000
37601.00 1267.28 100.138999 0.0000000000000000 0.000000 243.562270 -1186266.200858 30.126445 124.320510 -20.318877 1385.033591 -7.096 -7.096 0.000000 3.323957 0.000 0 0.000
37501.00 1267.09 100.138999 0.0000000000000000 0.000000 243.562270 -1186567.475666 30.128517 124.326571 -20.326177 1384.979797 -7.102 -7.102 0.000000 3.323728 0.000 0 0.000
37401.00 1266.91 100.138999 0.0000000000000000 0.000000 243.562270 -1186868.771206 30.130592 124.332633 -20.333484 1384.926233 -7.107 -7.107 0.000000 3.323499 0.000 0 0.000
37301.00 1266.72 100.138999 0.0000000000000000 0.000000 243.562270 -1187170.087509 30.132669 124.338697 -20.340800 1384.872901 -7.113 -7.113 0.000000 3.323270 0.000 0 0.000
37201.00 1266.53 100.138999 0.0000000000000000 0.000000 243.562270 -1187471.424605 30.134750 124.344762 -20.348123 1384.819802 -7.119 -7.119 0.000000 3.323041 0.000 0 0.000
37101.00 1266.34 100.138999 0.0000000000000000 0.000000 243.562270 -1187772.782526 30.136834 124.350828 -20.355454 1384.766941 -7.124 -7.124 0.000000 3.322811 0.000 0 0.000
37001.00 1266.15 100.138999 0.0000000000000000 0.000000 243.562270 -1188074.161305 30.138922 124.356897 -20.362792 1384.714319 -7.130 -7.130 0.000000 3.322581 0.000 0 0.000
36901.00 1265.96 100.138999 0.0000000000000000 0.000000 243.562270 -1188375.560973 30.141012 124.362967 -20.370139 1384.661939 -7.135 -7.135 0.000000 3.322350 0.000 0 0.000
36801.00 1265.78 100.138999 0.0000000000000000 0.000000 243.562270 -1188676.981562 30.143106 124.369039 -20.377495 1384.609804 -7.141 -7.141 0.000000 3.322119 0.000 0 0.000
36701.00 1265.59 100.138999 0.0000000000000000 0.000000 243.562270 -1188978.423105 30.145203 124.375112 -20.384858 1384.557916 -7.147 -7.147 0.000000 3.321888 0.000 0 0.000
36601.00 1265.40 100.138999 0.0000000000000000 0.000000 243.562270 -1189279.885635 30.147304 124.381187 -20.392230 1384.506279 -7.152 -7.152 0.000000 3.321657 0.000 0 0.000
36501.00 1265.21 100.138999 0.0000000000000000 0.000000 243.562270 -1189581.369186 30.149407 124.387265 -20.399610 1384.454895 -7.158 -7.158 0.000000 3.321425 0.000 0 0.000
36401.00 1265.02 100.138999 0.0000000000000000 0.000000 243.562270 -1189882.873792 30.151514 124.393344 -20.406999 1384.403768 -7.164 -7.164 0.000000 3.321193 0.000 0 0.000
36301.00 1264.83 100.138999 0.0000000000000000 0.000000 243.562270 -1190184.399485 30.153625 124.399425 -20.414396 1384.352899 -7.169 -7.169 0.000000 3.320961 0.000 0 0.000
36201.00 1264.64 100.138999 0.0000000000000000 0.000000 243.562270 -1190485.946300 30.155739 124.405508 -20.421802 1384.302293 -7.175 -7.175 0.000000 3.320728 0.000 0 0.000
36101.00 1264.45 100.138999 0.0000000000000000 0.000000 243.562270 -1190787.514273 30.157856 124.411593 -20.429217 1384.251951 -7.181 -7.181 0.000000 3.320495 0.000 0 0.000
36001.00 1264.27 100.138999 0.0000000000000000 0.000000 243.562270 -1191089.103438 30.159977 124.417680 -20.436641 1384.201878 -7.187 -7.187 0.000000 3.320261 0.000 0 0.000
35901.00 1264.08 100.138999 0.0000000000000000 0.000000 243.562270 -1191390.713830 30.162102 124.423769 -20.444074 1384.152077 -7.192 -7.192 0.000000 3.320027 0.000 0 0.000
35801.00 1263.89 100.138999 0.0000000000000000 0.000000 243.562270 -1191692.345485 30.164230 124.429860 -20.451516 1384.102550 -7.198 -7.198 0.000000 3.319793 0.000 0 0.000
35701.00 1263.70 100.138999 0.0000000000000000 0.000000 243.562270 -1191993.998439 30.166362 124.435954 -20.458967 1384.053301 -7.204 -7.204 0.000000 3.319558 0.000 0 0.000
35601.00 1263.51 100.138999 0.0000000000000000 0.000000 243.562270 -1192295.672728 30.168497 124.442050 -20.466428 1384.004333 -7.210 -7.210 0.000000 3.319323 0.000 0 0.000
35501.00 1263.32 100.138999 0.0000000000000000 0.000000 243.562270 -1192597.368390 30.170636 124.448148 -20.473898 1383.955650 -7.216 -7.216 0.000000 3.319088 0.000 0 0.000
35401.00 1263.13 100.138999 0.0000000000000000 0.000000 243.562270 -1192899.085461 30.172779 124.454249 -20.481378 1383.907255 -7.222 -7.222 0.000000 3.318852 0.000 0 0.000
35301.00 1262.94 100.138999 0.0000000000000000 0.000000 243.562270 -1193200.823979 30.174925 124.460352 -20.488867 1383.859152 -7.228 -7.228 0.000000 3.318616 0.000 0 0.000
35201.00 1262.75 100.138999 0.0000000000000000 0.000000 243.562270 -1193502.583982 30.177076 124.466458 -20.496367 1383.811345 -7.234 -7.234 0.000000 3.318380 0.000 0 0.000
35101.00 1262.56 100.138999 0.0000000000000000 0.000000 243.562270 -1193804.365507 30.179230 124.472566 -20.503876 1383.763836 -7.240 -7.240 0.000000 3.318143 0.000 0 0.000
35001.00 1262.37 100.138999 0.0000000000000000 0.000000 243.562270 -1194106.168595 30.181388 124.478678 -20.511395 1383.716630 -7.246 -7.246 0.000000 3.317906 0.000 0 0.000
34901.00 1262.18 100.138999 0.0000000000000000 0.000000 243.562270 -1194407.993284 30.183550 124.484791 -20.518925 1383.669730 -7.252 -7.252 0.000000 3.317668 0.000 0 0.000
34801.00 1261.99 100.138999 0.0000000000000000 0.000000 243.562270 -1194709.839613 30.185716 124.490908 -20.526464 1383.623141 -7.258 -7.258 0.000000 3.317430 0.000 0 0.000
34701.00 1261.80 100.138999 0.0000000000000000 0.000000 243.562270 -1195011.707624 30.187886 124.497027 -20.534015 1383.576866 -7.264 -7.264 0.000000 3.317191 0.000 0 0.000
34601.00 1261.61 100.138999 0.0000000000000000 0.000000 243.562270 -1195313.597355 30.190061 124.503150 -20.541575 1383.530910 -7.270 -7.270 0.000000 3.316953 0.000 0 0.000
34501.00 1261.42 100.138999 0.0000000000000000 0.000000 243.562270 -1195615.508848 30.192239 124.509275 -20.549147 1383.485276 -7.276 -7.276 0.000000 3.316713 0.000 0 0.000
34401.00 1261.23 100.138999 0.0000000000000000 0.000000 243.562270 -1195917.442145 30.194421 124.515403 -20.556729 1383.439969 -7.282 -7.282 0.000000 3.316474 0.000 0 0.000
34301.00 1261.04 100.138999 0.0000000000000000 0.000000 243.562270 -1196219.397287 30.196608 124.521535 -20.564322 1383.394993 -7.288 -7.288 0.000000 3.316233 0.000 0 0.000
34201.00 1260.85 100.138999 0.0000000000000000 0.000000 243.562270 -1196521.374317 30.198799 124.527670 -20.571927 1383.350352 -7.294 -7.294 0.000000 3.315993 0.000 0 0.000
34101.00 1260.66 100.138999 0.0000000000000000 0.000000 243.562270 -1196823.373277 30.200994 124.533808 -20.579542 1383.306051 -7.300 -7.300 0.000000 3.315752 0.000 0 0.000
34001.00 1260.47 100.138999 0.0000000000000000 0.000000 243.562270 -1197125.394211 30.203194 124.539949 -20.587169 1383.262094 -7.306 -7.306 0.000000 3.315510 0.000 0 0.000
33901.00 1260.28 100.138999 0.0000000000000000 0.000000 243.562270 -1197427.437162 30.205397 124.546094 -20.594808 1383.218487 -7.313 -7.313 0.000000 3.315268 0.000 0 0.000
33801.00 1260.09 100.138999 0.0000000000000000 0.000000 243.562270 -1197729.502175 30.207606 124.552242 -20.602458 1383.175232 -7.319 -7.319 0.000000 3.315026 0.000 0 0.000
33701.00 1259.90 100.138999 0.0000000000000000 0.000000 243.562270 -1198031.589295 30.209819 124.558394 -20.610120 1383.132337 -7.325 -7.325 0.000000 3.314783 0.000 0 0.000
33601.00 1259.71 100.138999 0.0000000000000000 0.000000 243.562270 -1198333.698567 30.212036 124.564550 -20.617794 1383.089805 -7.331 -7.331 0.000000 3.314540 0.000 0 0.000
33501.00 1259.52 100.138999 0.0000000000000000 0.000000 243.562270 -1198635.830038 30.214258 124.570710 -20.625481 1383.047641 -7.338 -7.338 0.000000 3.314296 0.000 0 0.000
33401.00 1259.33 100.138999 0.0000000000000000 0.000000 243.562270 -1198937.983752 30.216485 124.576873 -20.633179 1383.005851 -7.344 -7.344 0.000000 3.314052 0.000 0 0.000
33301.00 1259.14 100.138999 0.0000000000000000 0.000000 243.562270 -1199240.159759 30.218717 124.583040 -20.640890 1382.964440 -7.350 -7.350 0.000000 3.313807 0.000 0 0.000
33201.00 1258.94 100.138999 0.0000000000000000 0.000000 243.562270 -1199542.358104 30.220953 124.589212 -20.648614 1382.923413 -7.357 -7.357 0.000000 3.313562 0.000 0 0.000
33101.00 1258.75 100.138999 0.0000000000000000 0.000000 243.562270 -1199844.578838 30.223194 124.595387 -20.656351 1382.882775 -7.363 -7.363 0.000000 3.313316 0.000 0 0.000
33001.00 1258.56 100.138999 0.0000000000000000 0.000000 243.562270 -1200146.822007 30.225440 124.601567 -20.664101 1382.842533 -7.369 -7.369 0.000000 3.313070 0.000 0 0.000
32901.00 1258.37 100.138999 0.0000000000000000 0.000000 243.562270 -1200449.087663 30.227692 124.607751 -20.671863 1382.802691 -7.376 -7.376 0.000000 3.312823 0.000 0 0.000
32801.00 1258.18 100.138999 0.0000000000000000 0.000000 243.562270 -1200751.375855 30.229948 124.613940 -20.679640 1382.763256 -7.382 -7.382 0.000000 3.312576 0.000 0 0.000
