Title: Depleted MORB Mantle of Workmann & Hart 2005

System Thermodynamic Data:
Pressure Temperature mass F phi S H V Cp dVdP*10^6 dVdT*10^6 fO2(absolute) fO2(absolute) rhol rhos viscosity aH2O chisqr
44001.00 1494.31 100.138999 0.0000000000000000 0.000000 260.063480 -1139668.736251 30.340992 125.545519 -19.934943 1489.502197 -5.394 -5.394 0.000000 3.300452 0.000 0 0.000
43901.00 1494.07 100.138999 0.0000000000000000 0.000000 260.063480 -1139972.155996 30.342957 125.552831 -19.942184 1489.430323 -5.399 -5.399 0.000000 3.300239 0.000 0 0.000
43801.00 1493.84 100.138999 0.0000000000000000 0.000000 260.063480 -1140275.595405 30.344925 125.560145 -19.949431 1489.358654 -5.404 -5.404 0.000000 3.300025 0.000 0 0.000
43701.00 1493.61 100.138999 0.0000000000000000 0.000000 260.063480 -1140579.054507 30.346896 125.567459 -19.956684 1489.287193 -5.409 -5.409 0.000000 3.299810 0.000 0 0.000
43601.00 1493.38 100.138999 0.0000000000000000 0.000000 260.063480 -1140882.533331 30.348869 125.574775 -19.963944 1489.215942 -5.414 -5.414 0.000000 3.299596 0.000 0 0.000
43501.00 1493.15 100.138999 0.0000000000000000 0.000000 260.063480 -1141186.031906 30.350846 125.582091 -19.971211 1489.144903 -5.419 -5.419 0.000000 3.299381 0.000 0 0.000
43401.00 1492.92 100.138999 0.0000000000000000 0.000000 260.063480 -1141489.550262 30.352826 125.589409 -19.978485 1489.074077 -5.424 -5.424 0.000000 3.299166 0.000 0 0.000
43301.00 1492.69 100.138999 0.0000000000000000 0.000000 260.063480 -1141793.088428 30.354808 125.596729 -19.985765 1489.003466 -5.429 -5.429 0.000000 3.298950 0.000 0 0.000
43201.00 1492.46 100.138999 0.0000000000000000 0.000000 260.063480 -1142096.646434 30.356794 125.604049 -19.993052 1488.933073 -5.434 -5.434 0.000000 3.298734 0.000 0 0.000
43101.00 1492.23 100.138999 0.0000000000000000 0.000000 260.063480 -1142400.224310 30.358782 125.611371 -20.000346 1488.862900 -5.439 -5.439 0.000000 3.298518 0.000 0 0.000
43001.00 1492.00 100.138999 0.0000000000000000 0.000000 260.063480 -1142703.822086 30.360774 125.618694 -20.007647 1488.792949 -5.444 -5.444 0.000000 3.298302 0.000 0 0.000
42901.00 1491.77 100.138999 0.0000000000000000 0.000000 260.063480 -1143007.439793 30.362768 125.626018 -20.014955 1488.723222 -5.449 -5.449 0.000000 3.298085 0.000 0 0.000
42801.00 1491.54 100.138999 0.0000000000000000 0.000000 260.063480 -1143311.077461 30.364766 125.633344 -20.022270 1488.653721 -5.454 -5.454 0.000000 3.297868 0.000 0 0.000
42701.00 1491.30 100.138999 0.0000000000000000 0.000000 260.063480 -1143614.735122 30.366767 125.640671 -20.029593 1488.584448 -5.459 -5.459 0.000000 3.297651 0.000 0 0.000
42601.00 1491.07 100.138999 0.0000000000000000 0.000000 260.063480 -1143918.412806 30.368771 125.648000 -20.036922 1488.515406 -5.465 -5.465 0.000000 3.297433 0.000 0 0.000
42501.00 1490.84 100.138999 0.0000000000000000 0.000000 260.063480 -1144222.110546 30.370778 125.655330 -20.044259 1488.446596 -5.470 -5.470 0.000000 3.297215 0.000 0 0.000
42401.00 1490.61 100.138999 0.0000000000000000 0.000000 260.063480 -1144525.828372 30.372788 125.662662 -20.051604 1488.378022 -5.475 -5.475 0.000000 3.296997 0.000 0 0.000
42301.00 1490.38 100.138999 0.0000000000000000 0.000000 260.063480 -1144829.566318 30.374802 125.669996 -20.058956 1488.309685 -5.480 -5.480 0.000000 3.296779 0.000 0 0.000
42201.00 1490.15 100.138999 0.0000000000000000 0.000000 260.063480 -1145133.324414 30.376818 125.677331 -20.066315 1488.241587 -5.485 -5.485 0.000000 3.296560 0.000 0 0.000
42101.00 1489.92 100.138999 0.0000000000000000 0.000000 260.063480 -1145437.102695 30.378838 125.684667 -20.073682 1488.173732 -5.491 -5.491 0.000000 3.296341 0.000 0 0.000
42001.00 1489.68 100.138999 0.0000000000000000 0.000000 260.063480 -1145740.901192 30.380862 125.692006 -20.081057 1488.106122 -5.496 -5.496 0.000000 3.296121 0.000 0 0.000
41901.00 1489.45 100.138999 0.0000000000000000 0.000000 260.063480 -1146044.719938 30.382888 125.699346 -20.088440 1488.038758 -5.501 -5.501 0.000000 3.295901 0.000 0 0.000
41801.00 1489.22 100.138999 0.0000000000000000 0.000000 260.063480 -1146348.558968 30.384918 125.706688 -20.095831 1487.971645 -5.506 -5.506 0.000000 3.295681 0.000 0 0.000
41701.00 1488.99 100.138999 0.0000000000000000 0.000000 260.063480 -1146652.418314 30.386952 125.714032 -20.103229 1487.904783 -5.512 -5.512 0.000000 3.295461 0.000 0 0.000
41601.00 1488.76 100.138999 0.0000000000000000 0.000000 260.063480 -1146956.298010 30.388988 125.721378 -20.110636 1487.838176 -5.517 -5.517 0.000000 3.295240 0.000 0 0.000
41501.00 1488.52 100.138999 0.0000000000000000 0.000000 260.063480 -1147260.198091 30.391028 125.728726 -20.118050 1487.771827 -5.522 -5.522 0.000000 3.295018 0.000 0 0.000
41401.00 1488.29 100.138999 0.0000000000000000 0.000000 260.063480 -1147564.118592 30.393072 125.736076 -20.125473 1487.705737 -5.528 -5.528 0.000000 3.294797 0.000 0 0.000
41301.00 1488.06 100.138999 0.0000000000000000 0.000000 260.063480 -1147868.059546 30.395119 125.743428 -20.132904 1487.639911 -5.533 -5.533 0.000000 3.294575 0.000 0 0.000
41201.00 1487.83 100.138999 0.0000000000000000 0.000000 260.063480 -1148172.020989 30.397170 125.750782 -20.140344 1487.574350 -5.538 -5.538 0.000000 3.294353 0.000 0 0.000
41101.00 1487.60 100.138999 0.0000000000000000 0.000000 260.063480 -1148476.002957 30.399224 125.758138 -20.147792 1487.509057 -5.544 -5.544 0.000000 3.294130 0.000 0 0.000
41001.00 1487.36 100.138999 0.0000000000000000 0.000000 260.063480 -1148780.005485 30.401282 125.765496 -20.155248 1487.444036 -5.549 -5.549 0.000000 3.293907 0.000 0 0.000
40901.00 1487.13 100.138999 0.0000000000000000 0.000000 260.063480 -1149084.028609 30.403343 125.772856 -20.162714 1487.379288 -5.555 -5.555 0.000000 3.293684 0.000 0 0.000
40801.00 1486.90 100.138999 0.0000000000000000 0.000000 260.063480 -1149388.072366 30.405409 125.780219 -20.170188 1487.314818 -5.560 -5.560 0.000000 3.293460 0.000 0 0.000
40701.00 1486.67 100.138999 0.0000000000000000 0.000000 260.063480 -1149692.136793 30.407477 125.787584 -20.177670 1487.250628 -5.565 -5.565 0.000000 3.293236 0.000 0 0.000
40601.00 1486.43 100.138999 0.0000000000000000 0.000000 260.063480 -1149996.221925 30.409550 125.794952 -20.185162 1487.186720 -5.571 -5.571 0.000000 3.293012 0.000 0 0.000
40501.00 1486.20 100.138999 0.0000000000000000 0.000000 260.063480 -1150300.327801 30.411626 125.802322 -20.192663 1487.123099 -5.576 -5.576 0.000000 3.292787 0.000 0 0.000
40401.00 1485.97 100.138999 0.0000000000000000 0.000000 260.063480 -1150604.454459 30.413706 125.809694 -20.200173 1487.059768 -5.582 -5.582 0.000000 3.292562 0.000 0 0.000
40301.00 1485.73 100.138999 0.0000000000000000 0.000000 260.063480 -1150908.601936 30.415790 125.817069 -20.207692 1486.996728 -5.587 -5.587 0.000000 3.292336 0.000 0 0.000
40201.00 1485.50 100.138999 0.0000000000000000 0.000000 260.063480 -1151212.770271 30.417878 125.824447 -20.215220 1486.933985 -5.593 -5.593 0.000000 3.292110 0.000 0 0.000
40101.00 1485.27 100.138999 0.0000000000000000 0.000000 260.063480 -1151516.959503 30.419969 125.831827 -20.222758 1486.871541 -5.599 -5.599 0.000000 3.291884 0.000 0 0.000
40001.00 1485.03 100.138999 0.0000000000000000 0.000000 260.063480 -1151821.169671 30.422065 125.839210 -20.230305 1486.809399 -5.604 -5.604 0.000000 3.291657 0.000 0 0.000
39901.00 1484.80 100.138999 0.0000000000000000 0.000000 260.063480 -1152125.400814 30.424164 125.846596 -20.237862 1486.747563 -5.610 -5.610 0.000000 3.291430 0.000 0 0.000
39801.00 1484.57 100.138999 0.0000000000000000 0.000000 260.063480 -1152429.652972 30.426268 125.853984 -20.245429 1486.686036 -5.615 -5.615 0.000000 3.291202 0.000 0 0.000
39701.00 1484.33 100.138999 0.0000000000000000 0.000000 260.063480 -1152733.926185 30.428375 125.861376 -20.253006 1486.624822 -5.621 -5.621 0.000000 3.290974 0.000 0 0.000
39601.00 1484.10 100.138999 0.0000000000000000 0.000000 260.063480 -1153038.220495 30.430487 125.868770 -20.260592 1486.563924 -5.627 -5.627 0.000000 3.290746 0.000 0 0.000
39501.00 1483.87 100.138999 0.0000000000000000 0.000000 260.063480 -1153342.535942 30.432603 125.876168 -20.268189 1486.503347 -5.632 -5.632 0.000000 3.290517 0.000 0 0.000
39401.00 1483.63 100.138999 0.0000000000000000 0.000000 260.063480 -1153646.872568 30.434723 125.883569 -20.275796 1486.443093 -5.638 -5.638 0.000000 3.290288 0.000 0 0.000
39301.00 1483.40 100.138999 0.0000000000000000 0.000000 260.063480 -1153951.230415 30.436847 125.890972 -20.283413 1486.383167 -5.644 -5.644 0.000000 3.290058 0.000 0 0.000
39201.00 1483.17 100.138999 0.0000000000000000 0.000000 260.063480 -1154255.609524 30.438976 125.898379 -20.291040 1486.323572 -5.650 -5.650 0.000000 3.289828 0.000 0 0.000
39101.00 1482.93 100.138999 0.0000000000000000 0.000000 260.063480 -1154560.009939 30.441108 125.905790 -20.298678 1486.264313 -5.655 -5.655 0.000000 3.289598 0.000 0 0.000
39001.00 1482.70 100.138999 0.0000000000000000 0.000000 260.063480 -1154864.431703 30.443245 125.913203 -20.306327 1486.205393 -5.661 -5.661 0.000000 3.289367 0.000 0 0.000
38901.00 1482.46 100.138999 0.0000000000000000 0.000000 260.063480 -1155168.874860 30.445387 125.920620 -20.313986 1486.146816 -5.667 -5.667 0.000000 3.289135 0.000 0 0.000
38801.00 1482.23 100.138999 0.0000000000000000 0.000000 260.063480 -1155473.339453 30.447533 125.928041 -20.321657 1486.088587 -5.673 -5.673 0.000000 3.288904 0.000 0 0.000
38701.00 1481.99 100.138999 0.0000000000000000 0.000000 260.063480 -1155777.825527 30.449683 125.935465 -20.329338 1486.030709 -5.679 -5.679 0.000000 3.288671 0.000 0 0.000
38601.00 1481.76 100.138999 0.0000000000000000 0.000000 260.063480 -1156082.333127 30.451838 125.942893 -20.337031 1485.973188 -5.685 -5.685 0.000000 3.288439 0.000 0 0.000
38501.00 1481.52 100.138999 0.0000000000000000 0.000000 260.063480 -1156386.862298 30.453997 125.950325 -20.344735 1485.916027 -5.690 -5.690 0.000000 3.288205 0.000 0 0.000
38401.00 1481.29 100.138999 0.0000000000000000 0.000000 260.063480 -1156691.413087 30.456161 125.957760 -20.352450 1485.859230 -5.696 -5.696 0.000000 3.287972 0.000 0 0.000
38301.00 1481.05 100.138999 0.0000000000000000 0.000000 260.063480 -1156995.985540 30.458330 125.965199 -20.360177 1485.802803 -5.702 -5.702 0.000000 3.287738 0.000 0 0.000
38201.00 1480.82 100.138999 0.0000000000000000 0.000000 260.063480 -1157300.579703 30.460503 125.972642 -20.367916 1485.746750 -5.708 -5.708 0.000000 3.287503 0.000 0 0.000
38101.00 1480.58 100.138999 0.0000000000000000 0.000000 260.063480 -1157605.195625 30.462682 125.980090 -20.375666 1485.691075 -5.714 -5.714 0.000000 3.287268 0.000 0 0.000
38001.00 1480.35 100.138999 0.0000000000000000 0.000000 260.063480 -1157909.833353 30.464865 125.987541 -20.383429 1485.635783 -5.720 -5.720 0.000000 3.287032 0.000 0 0.000
37901.00 1480.11 100.138999 0.0000000000000000 0.000000 260.063480 -1158214.492935 30.467053 125.994997 -20.391203 1485.580880 -5.726 -5.726 0.000000 3.286796 0.000 0 0.000
37801.00 1479.88 100.138999 0.0000000000000000 0.000000 260.063480 -1158519.174421 30.469245 126.002457 -20.398990 1485.526370 -5.732 -5.732 0.000000 3.286560 0.000 0 0.000
37701.00 1479.64 100.138999 0.0000000000000000 0.000000 260.063480 -1158823.877860 30.471443 126.009921 -20.406789 1485.472258 -5.738 -5.738 0.000000 3.286323 0.000 0 0.000
37601.00 1479.41 100.138999 0.0000000000000000 0.000000 260.063480 -1159128.603303 30.473646 126.017390 -20.414601 1485.418549 -5.745 -5.745 0.000000 3.286085 0.000 0 0.000
37501.00 1479.17 100.138999 0.0000000000000000 0.000000 260.063480 -1159433.350799 30.475854 126.024863 -20.422426 1485.365248 -5.751 -5.751 0.000000 3.285847 0.000 0 0.000
37401.00 1478.93 100.138999 0.0000000000000000 0.000000 260.063480 -1159738.120400 30.478067 126.032341 -20.430264 1485.312362 -5.757 -5.757 0.000000 3.285609 0.000 0 0.000
37301.00 1478.70 100.138999 0.0000000000000000 0.000000 260.063480 -1160042.912158 30.480285 126.039824 -20.438114 1485.259894 -5.763 -5.763 0.000000 3.285369 0.000 0 0.000
37201.00 1478.46 100.138999 0.0000000000000000 0.000000 260.063480 -1160347.726126 30.482509 126.047312 -20.445978 1485.207851 -5.769 -5.769 0.000000 3.285130 0.000 0 0.000
37101.00 1478.22 100.138999 0.0000000000000000 0.000000 260.063480 -1160652.562356 30.484738 126.054804 -20.453855 1485.156239 -5.775 -5.775 0.000000 3.284890 0.000 0 0.000
37001.00 1477.99 100.138999 0.0000000000000000 0.000000 260.063480 -1160957.420902 30.486972 126.062302 -20.461746 1485.105063 -5.782 -5.782 0.000000 3.284649 0.000 0 0.000
36901.00 1477.75 100.138999 0.0000000000000000 0.000000 260.063480 -1161262.301819 30.489212 126.069805 -20.469651 1485.054329 -5.788 -5.788 0.000000 3.284408 0.000 0 0.000
36801.00 1477.51 100.138999 0.0000000000000000 0.000000 260.063480 -1161567.205160 30.491457 126.077313 -20.477569 1485.004042 -5.794 -5.794 0.000000 3.284166 0.000 0 0.000
36701.00 1477.28 100.138999 0.0000000000000000 0.000000 260.063480 -1161872.130983 30.493708 126.084826 -20.485502 1484.954210 -5.800 -5.800 0.000000 3.283923 0.000 0 0.000
36601.00 1477.04 100.138999 0.0000000000000000 0.000000 260.063480 -1162177.079342 30.495965 126.092345 -20.493449 1484.904838 -5.807 -5.807 0.000000 3.283680 0.000 0 0.000
36501.00 1476.80 100.138999 0.0000000000000000 0.000000 260.063480 -1162482.050296 30.498227 126.099870 -20.501410 1484.855932 -5.813 -5.813 0.000000 3.283437 0.000 0 0.000
36401.00 1476.56 100.138999 0.0000000000000000 0.000000 260.063480 -1162787.043901 30.500495 126.107400 -20.509386 1484.807499 -5.820 -5.820 0.000000 3.283193 0.000 0 0.000
36301.00 1476.33 100.138999 0.0000000000000000 0.000000 260.063480 -1163092.060215 30.502769 126.114936 -20.517377 1484.759546 -5.826 -5.826 0.000000 3.282948 0.000 0 0.000
36201.00 1476.09 100.138999 0.0000000000000000 0.000000 260.063480 -1163397.099299 30.505049 126.122478 -20.525383 1484.712080 -5.832 -5.832 0.000000 3.282702 0.000 0 0.000
36101.00 1475.85 100.138999 0.0000000000000000 0.000000 260.063480 -1163702.161212 30.507335 126.130026 -20.533404 1484.665106 -5.839 -5.839 0.000000 3.282457 0.000 0 0.000
36001.00 1475.61 100.138999 0.0000000000000000 0.000000 260.063480 -1164007.246013 30.509627 126.137580 -20.541441 1484.618632 -5.845 -5.845 0.000000 3.282210 0.000 0 0.000
35901.00 1475.37 100.138999 0.0000000000000000 0.000000 260.063480 -1164312.353765 30.511925 126.145141 -20.549493 1484.572666 -5.852 -5.852 0.000000 3.281963 0.000 0 0.000
35801.00 1475.14 100.138999 0.0000000000000000 0.000000 260.063480 -1164617.484530 30.514229 126.152708 -20.557561 1484.527214 -5.858 -5.858 0.000000 3.281715 0.000 0 0.000
35701.00 1474.90 100.138999 0.0000000000000000 0.000000 260.063480 -1164922.638370 30.516540 126.160281 -20.565645 1484.482284 -5.865 -5.865 0.000000 3.281466 0.000 0 0.000
35601.00 1474.66 100.138999 0.0000000000000000 0.000000 260.063480 -1165227.815349 30.518857 126.167861 -20.573746 1484.437883 -5.872 -5.872 0.000000 3.281217 0.000 0 0.000
35501.00 1474.42 100.138999 0.0000000000000000 0.000000 260.063480 -1165533.015531 30.521181 126.175448 -20.581863 1484.394020 -5.878 -5.878 0.000000 3.280967 0.000 0 0.000
35401.00 1474.18 100.138999 0.0000000000000000 0.000000 260.063480 -1165838.238982 30.523511 126.183042 -20.589997 1484.350701 -5.885 -5.885 0.000000 3.280717 0.000 0 0.000
35301.00 1473.94 100.138999 0.0000000000000000 0.000000 260.063480 -1166143.485769 30.525848 126.190643 -20.598148 1484.307936 -5.892 -5.892 0.000000 3.280466 0.000 0 0.000
35201.00 1473.70 100.138999 0.0000000000000000 0.000000 260.063480 -1166448.755957 30.528191 126.198252 -20.606316 1484.265732 -5.898 -5.898 0.000000 3.280214 0.000 0 0.000
35101.00 1473.46 100.138999 0.0000000000000000 0.000000 260.063480 -1166754.049615 30.530542 126.205867 -20.614502 1484.224098 -5.905 -5.905 0.000000 3.279961 0.000 0 0.000
35001.00 1473.22 100.138999 0.0000000000000000 0.000000 260.063480 -1167059.366812 30.532899 126.213491 -20.622705 1484.183042 -5.912 -5.912 0.000000 3.279708 0.000 0 0.000
34901.00 1472.98 100.138999 0.0000000000000000 0.000000 260.063480 -1167364.707618 30.535263 126.221122 -20.630926 1484.142573 -5.919 -5.919 0.000000 3.279454 0.000 0 0.000
34801.00 1472.74 100.138999 0.0000000000000000 0.000000 260.063480 -1167670.072103 30.537635 126.228761 -20.639166 1484.102700 -5.925 -5.925 0.000000 3.279200 0.000 0 0.000
34701.00 1472.50 100.138999 0.0000000000000000 0.000000 260.063480 -1167975.460340 30.540014 126.236408 -20.647424 1484.063432 -5.932 -5.932 0.000000 3.278944 0.000 0 0.000
34601.00 1472.26 100.138999 0.0000000000000000 0.000000 260.063480 -1168280.872400 30.542400 126.244063 -20.655701 1484.024778 -5.939 -5.939 0.000000 3.278688 0.000 0 0.000
34501.00 1472.02 100.138999 0.0000000000000000 0.000000 260.063480 -1168586.308357 30.544793 126.251726 -20.663997 1483.986748 -5.946 -5.946 0.000000 3.278431 0.000 0 0.000
34401.00 1471.78 100.138999 0.0000000000000000 0.000000 260.063480 -1168891.768287 30.547194 126.259398 -20.672312 1483.949352 -5.953 -5.953 0.000000 3.278173 0.000 0 0.000
34301.00 1471.53 100.138999 0.0000000000000000 0.000000 260.063480 -1169197.252265 30.549603 126.267079 -20.680647 1483.912599 -5.960 -5.960 0.000000 3.277915 0.000 0 0.000
34201.00 1471.29 100.138999 0.0000000000000000 0.000000 260.063480 -1169502.760368 30.552019 126.274769 -20.689001 1483.876500 -5.967 -5.967 0.000000 3.277656 0.000 0 0.000
34101.00 1471.05 100.138999 0.0000000000000000 0.000000 260.063480 -1169808.292674 30.554443 126.282468 -20.697376 1483.841065 -5.974 -5.974 0.000000 3.277396 0.000 0 0.000
34001.00 1470.81 100.138999 0.0000000000000000 0.000000 260.063480 -1170113.849262 30.556876 126.290176 -20.705771 1483.806304 -5.981 -5.981 0.000000 3.277135 0.000 0 0.000
33901.00 1470.57 100.138999 0.0000000000000000 0.000000 260.063480 -1170419.430212 30.559316 126.297893 -20.714188 1483.772229 -5.988 -5.988 0.000000 3.276873 0.000 0 0.000
33801.00 1470.32 100.138999 0.0000000000000000 0.000000 260.063480 -1170725.035606 30.561764 126.305620 -20.722625 1483.738851 -5.996 -5.996 0.000000 3.276611 0.000 0 0.000
33701.00 1470.08 100.138999 0.0000000000000000 0.000000 260.063480 -1171030.665526 30.564221 126.313357 -20.731084 1483.706180 -6.003 -6.003 0.000000 3.276347 0.000 0 0.000
33601.00 1469.84 100.138999 0.0000000000000000 0.000000 260.063480 -1171336.320056 30.566686 126.321104 -20.739564 1483.674229 -6.010 -6.010 0.000000 3.276083 0.000 0 0.000
33501.00 1469.59 100.138999 0.0000000000000000 0.000000 260.063480 -1171641.999282 30.569160 126.328861 -20.748067 1483.643009 -6.017 -6.017 0.000000 3.275818 0.000 0 0.000
33401.00 1469.35 100.138999 0.0000000000000000 0.000000 260.063480 -1171947.703289 30.571643 126.336629 -20.756592 1483.612532 -6.025 -6.025 0.000000 3.275552 0.000 0 0.000
33301.00 1469.11 100.138999 0.0000000000000000 0.000000 260.063480 -1172253.432165 30.574134 126.344407 -20.765140 1483.582811 -6.032 -6.032 0.000000 3.275285 0.000 0 0.000
33201.00 1468.86 100.138999 0.0000000000000000 0.000000 260.063480 -1172559.186000 30.576634 126.352197 -20.773711 1483.553859 -6.039 -6.039 0.000000 3.275017 0.000 0 0.000
33101.00 1468.62 100.138999 0.0000000000000000 0.000000 260.063480 -1172864.964883 30.579144 126.359997 -20.782305 1483.525687 -6.047 -6.047 0.000000 3.274748 0.000 0 0.000
33001.00 1468.37 100.138999 0.0000000000000000 0.000000 260.063480 -1173170.768906 30.581662 126.367809 -20.790924 1483.498311 -6.054 -6.054 0.000000 3.274479 0.000 0 0.000
32901.00 1468.13 100.138999 0.0000000000000000 0.000000 260.063480 -1173476.598164 30.584191 126.375633 -20.799566 1483.471742 -6.062 -6.062 0.000000 3.274208 0.000 0 0.000
32801.00 1467.88 100.138999 0.0000000000000000 0.000000 260.063480 -1173782.452749 30.586728 126.383468 -20.808234 1483.445995 -6.069 -6.069 0.000000 3.273936 0.000 0 0.000
