Title: Depleted MORB Mantle of Workmann & Hart 2005

liquid_0 thermodynamic data and composition:
Pressure Temperature mass S H V Cp viscosity SiO2 TiO2 Al2O3 Fe2O3 Cr2O3 FeO MnO MgO NiO CaO Na2O
12701.00 1277.74 0.037885 0.107627 -458.893262 0.014083 0.057800 2.174 52.1361 0.654696 18.4332 0.0908298 0.298402 4.52446 0.0163941 8.50761 0.00904025 4.36403 10.9652
12601.00 1277.40 0.076581 0.217455 -928.295466 0.028474 0.116842 2.185 52.1933 0.653701 18.4446 0.092104 0.293786 4.5171 0.0161807 8.50723 0.00891917 4.41673 10.8564
12501.00 1277.07 0.115907 0.328964 -1406.028901 0.043107 0.176850 2.195 52.2499 0.652748 18.4556 0.0934106 0.289206 4.50993 0.0159688 8.50713 0.00879899 4.47025 10.747
12401.00 1276.73 0.155887 0.442220 -1892.403437 0.057992 0.237862 2.206 52.3059 0.651835 18.4664 0.094751 0.284661 4.50298 0.0157584 8.50729 0.00867972 4.52463 10.6372
12301.00 1276.39 0.196547 0.557292 -2387.744336 0.073136 0.299917 2.217 52.3613 0.650963 18.4767 0.0961262 0.280153 4.49622 0.0155495 8.50773 0.00856134 4.57986 10.5268
12201.00 1276.05 0.237914 0.674250 -2892.393130 0.088551 0.363057 2.227 52.4161 0.650134 18.4868 0.0975376 0.275681 4.48968 0.0153421 8.50844 0.00844385 4.63598 10.4159
12101.00 1275.71 0.280015 0.793170 -3406.708611 0.104246 0.427323 2.238 52.4703 0.649346 18.4965 0.0989863 0.271245 4.48335 0.0151362 8.50942 0.00832727 4.69299 10.3044
12001.00 1275.37 0.322882 0.914132 -3931.067850 0.120234 0.492763 2.248 52.5238 0.648601 18.5059 0.100474 0.266846 4.47723 0.0149318 8.51068 0.00821158 4.75091 10.1924
11901.00 1275.02 0.366544 1.037219 -4465.867291 0.136524 0.559423 2.259 52.5766 0.647899 18.5149 0.102001 0.262484 4.47134 0.0147288 8.51223 0.00809679 4.80976 10.0799
11801.00 1274.67 0.411035 1.162517 -5011.523919 0.153131 0.627355 2.269 52.6288 0.64724 18.5236 0.103571 0.258159 4.46566 0.0145274 8.51405 0.00798289 4.86955 9.9669
11701.00 1274.32 0.456389 1.290119 -5568.476501 0.170065 0.696610 2.279 52.6802 0.646626 18.5319 0.105183 0.253872 4.4602 0.0143275 8.51616 0.00786988 4.9303 9.85335
11601.00 1273.97 0.502642 1.420122 -6137.186908 0.187342 0.767246 2.289 52.7309 0.646055 18.5399 0.10684 0.249622 4.45497 0.014129 8.51855 0.00775776 4.99202 9.73927
11501.00 1273.62 0.549833 1.552628 -6718.141518 0.204975 0.839320 2.299 52.7808 0.645529 18.5475 0.108543 0.24541 4.44997 0.0139321 8.52122 0.00764653 5.05474 9.62468
11401.00 1273.26 0.598003 1.687743 -7311.852718 0.222978 0.912894 2.310 52.83 0.645047 18.5547 0.110295 0.241237 4.4452 0.0137366 8.52418 0.00753618 5.11847 9.50957
11301.00 1272.90 0.647193 1.825582 -7918.860494 0.241369 0.988034 2.320 52.8784 0.644611 18.5615 0.112096 0.237102 4.44066 0.0135426 8.52742 0.00742672 5.18323 9.39394
11201.00 1272.54 0.697448 1.966263 -8539.734121 0.260163 1.064809 2.329 52.926 0.64422 18.568 0.113948 0.233006 4.43636 0.0133501 8.53095 0.00731815 5.24902 9.2778
11101.00 1272.17 0.748816 2.109912 -9175.073972 0.279378 1.143290 2.339 52.9728 0.643875 18.5741 0.115854 0.22895 4.43229 0.0131591 8.53476 0.00721045 5.31588 9.16115
11001.00 1271.81 0.801346 2.256660 -9825.513418 0.299033 1.223554 2.349 53.0187 0.643575 18.5798 0.117816 0.224932 4.42845 0.0129695 8.53885 0.00710363 5.3838 9.044
10901.00 1271.43 0.855091 2.406649 -10491.720864 0.319146 1.305683 2.359 53.0638 0.643322 18.5851 0.119835 0.220955 4.42486 0.0127815 8.54322 0.0069977 5.45282 8.92635
10801.00 1271.06 0.910107 2.560026 -11174.401907 0.339739 1.389761 2.368 53.108 0.643115 18.5899 0.121913 0.217018 4.42151 0.0125949 8.54787 0.00689263 5.52294 8.80822
10701.00 1270.68 0.966451 2.716945 -11874.301612 0.360833 1.475878 2.378 53.1513 0.642955 18.5944 0.124054 0.213121 4.41839 0.0124098 8.5528 0.00678844 5.59418 8.6896
10601.00 1270.30 1.024187 2.877571 -12592.206912 0.382452 1.564129 2.387 53.1937 0.642841 18.5985 0.126258 0.209266 4.41552 0.0122262 8.558 0.00668512 5.66655 8.57051
10501.00 1269.91 1.060029 2.976513 -13041.673382 0.395898 1.618953 2.397 53.2351 0.642777 18.6021 0.12853 0.205446 4.41292 0.012044 8.56351 0.00658268 5.74012 8.45087
10401.00 1269.53 1.060102 2.974940 -13051.323121 0.395985 1.619154 2.406 53.2754 0.64277 18.6054 0.130871 0.201653 4.41066 0.0118634 8.56941 0.00648115 5.81501 8.33055
10301.00 1269.14 1.060192 2.973394 -13061.132128 0.396075 1.619382 2.415 53.3146 0.64282 18.6082 0.133285 0.197887 4.40873 0.0116842 8.57569 0.00638051 5.89125 8.20955
10201.00 1268.75 1.060300 2.971877 -13071.110812 0.396168 1.619640 2.424 53.3526 0.642929 18.6105 0.135774 0.194148 4.40715 0.0115066 8.58235 0.00628076 5.96886 8.08787
10101.00 1268.36 1.060427 2.970393 -13081.270317 0.396266 1.619928 2.433 53.3894 0.643098 18.6125 0.138343 0.190437 4.40593 0.0113304 8.58941 0.0061819 6.04787 7.9655
10001.00 1267.96 1.060574 2.968942 -13091.622557 0.396367 1.620249 2.441 53.425 0.643328 18.614 0.140993 0.186753 4.40506 0.0111558 8.59686 0.00608393 6.12831 7.84245
9901.00 1267.57 1.060741 2.967529 -13102.180304 0.396473 1.620604 2.450 53.4594 0.64362 18.615 0.143728 0.183098 4.40456 0.0109826 8.6047 0.00598684 6.21021 7.71871
9801.00 1267.17 1.060931 2.966155 -13112.957224 0.396584 1.620995 2.458 53.4924 0.643976 18.6156 0.146552 0.179472 4.40443 0.0108109 8.61293 0.00589064 6.29359 7.59428
9701.00 1266.77 1.061144 2.964825 -13123.967970 0.396700 1.621424 2.466 53.5242 0.644396 18.6157 0.149469 0.175875 4.40468 0.0106407 8.62156 0.00579531 6.37849 7.46917
9601.00 1266.37 1.061382 2.963540 -13135.228246 0.396822 1.621894 2.475 53.5546 0.644882 18.6154 0.152481 0.172307 4.40531 0.0104719 8.63058 0.00570085 6.46493 7.34337
9501.00 1265.96 1.061647 2.962305 -13146.754901 0.396951 1.622406 2.483 53.5836 0.645436 18.6145 0.155594 0.168769 4.40633 0.0103047 8.64 0.00560726 6.55294 7.21688
9401.00 1265.56 1.061939 2.961123 -13158.566012 0.397086 1.622963 2.490 53.6112 0.646057 18.6132 0.15881 0.165261 4.40774 0.0101389 8.6498 0.00551454 6.64255 7.08972
9301.00 1265.15 1.062261 2.959999 -13170.680991 0.397228 1.623567 2.498 53.6374 0.646748 18.6114 0.162135 0.161783 4.40956 0.0099745 8.65999 0.00542268 6.73379 6.96188
9201.00 1264.73 1.062614 2.958936 -13183.120691 0.397378 1.624222 2.505 53.662 0.647509 18.609 0.165572 0.158337 4.41178 0.0098116 8.67057 0.00533168 6.82668 6.83337
9101.00 1264.32 1.063000 2.957940 -13195.907516 0.397537 1.624930 2.513 53.6852 0.648341 18.6062 0.169126 0.154923 4.41441 0.00965014 8.68152 0.00524154 6.92125 6.7042
9001.00 1263.90 1.063422 2.957015 -13209.065568 0.397705 1.625694 2.520 53.7068 0.649247 18.6028 0.172802 0.151541 4.41746 0.00949013 8.69285 0.00515224 7.01753 6.57437
8901.00 1263.48 1.063881 2.956166 -13222.620768 0.397883 1.626518 2.527 53.7268 0.650225 18.5989 0.176606 0.148191 4.42093 0.00933156 8.70454 0.0050638 7.11553 6.4439
8801.00 1263.05 1.064379 2.955400 -13236.601038 0.398071 1.627405 2.533 53.7452 0.651279 18.5944 0.18054 0.144874 4.42482 0.00917442 8.7166 0.0049762 7.21529 6.31279
8701.00 1262.62 1.064920 2.954723 -13251.036403 0.398272 1.628360 2.540 53.762 0.652407 18.5895 0.184612 0.141592 4.42913 0.00901871 8.729 0.00488944 7.31683 6.18106
8601.00 1262.19 1.065506 2.954142 -13265.959291 0.398484 1.629385 2.546 53.7771 0.653612 18.5839 0.188826 0.138344 4.43387 0.00886443 8.74175 0.00480352 7.42017 6.04873
8501.00 1261.76 1.066140 2.953663 -13281.404606 0.398711 1.630486 2.552 53.7906 0.654893 18.5778 0.193188 0.13513 4.43904 0.00871158 8.75482 0.00471843 7.52531 5.91581
8401.00 1261.32 1.066824 2.953294 -13297.410033 0.398952 1.631667 2.558 53.8023 0.656251 18.5712 0.197703 0.131953 4.44464 0.00856014 8.7682 0.00463418 7.63229 5.78232
8301.00 1260.87 1.067563 2.953045 -13314.016247 0.399210 1.632933 2.564 53.8123 0.657687 18.5639 0.202377 0.128812 4.45066 0.00841011 8.78188 0.00455076 7.74112 5.64829
8201.00 1260.42 1.068359 2.952923 -13331.267183 0.399484 1.634290 2.570 53.8205 0.659199 18.5561 0.207216 0.125708 4.45712 0.0082615 8.79584 0.00446816 7.8518 5.51374
8101.00 1259.97 1.069217 2.952940 -13349.210323 0.399777 1.635744 2.575 53.827 0.66079 18.5477 0.212226 0.122643 4.46399 0.0081143 8.81005 0.00438639 7.96435 5.37869
8001.00 1259.51 1.070141 2.953105 -13367.897035 0.400091 1.637300 2.580 53.8317 0.662457 18.5388 0.217413 0.119616 4.47129 0.00796851 8.82451 0.00430543 8.07876 5.24319
7901.00 1259.05 1.071136 2.953430 -13387.382867 0.400426 1.638965 2.585 53.8347 0.6642 18.5292 0.222783 0.116629 4.479 0.00782412 8.83917 0.0042253 8.19505 5.10726
7801.00 1258.58 1.072205 2.953927 -13407.728012 0.400785 1.640747 2.590 53.8358 0.666018 18.519 0.228342 0.113682 4.48711 0.00768114 8.85402 0.00414599 8.3132 4.97094
7701.00 1258.11 1.073354 2.954611 -13428.997654 0.401169 1.642654 2.594 53.8352 0.66791 18.5083 0.234095 0.110777 4.49562 0.00753957 8.86903 0.0040675 8.4332 4.83428
7601.00 1257.63 1.074589 2.955495 -13451.262483 0.401582 1.644693 2.599 53.8327 0.669875 18.497 0.240049 0.107914 4.50451 0.0073994 8.88416 0.00398982 8.55505 4.69732
7501.00 1257.14 1.075916 2.956595 -13474.599182 0.402024 1.646873 2.603 53.8286 0.671909 18.4851 0.246209 0.105095 4.51377 0.00726064 8.89938 0.00391295 8.67873 4.56012
7401.00 1256.65 1.077342 2.957928 -13499.090990 0.402499 1.649206 2.607 53.8226 0.67401 18.4726 0.252582 0.10232 4.52339 0.00712329 8.91465 0.00383691 8.8042 4.42272
7301.00 1256.15 1.078873 2.959514 -13524.828321 0.403010 1.651700 2.611 53.815 0.676175 18.4595 0.259172 0.0995909 4.53333 0.00698734 8.92993 0.00376167 8.93143 4.28519
7201.00 1255.64 1.080517 2.961372 -13551.909435 0.403558 1.654369 2.614 53.8056 0.678399 18.4458 0.265984 0.0969084 4.54359 0.00685282 8.94517 0.00368726 9.06039 4.14759
7101.00 1255.13 1.082282 2.963524 -13580.441180 0.404149 1.657223 2.618 53.7947 0.680679 18.4316 0.273024 0.0942739 4.55413 0.00671971 8.96033 0.00361366 9.19103 4.01
7001.00 1254.60 1.084178 2.965994 -13610.539783 0.404784 1.660277 2.621 53.7821 0.683007 18.4167 0.280295 0.0916885 4.56492 0.00658804 8.97536 0.00354089 9.32328 3.87248
6901.00 1254.07 1.086214 2.968808 -13642.331765 0.405468 1.663545 2.624 53.768 0.685379 18.4014 0.2878 0.0891535 4.57593 0.00645779 8.9902 0.00346894 9.45709 3.73513
6801.00 1253.53 1.088401 2.971993 -13675.954844 0.406206 1.667043 2.627 53.7525 0.687786 18.3855 0.295543 0.08667 4.58713 0.00632899 9.00479 0.00339781 9.59237 3.59803
6701.00 1252.98 1.090750 2.975581 -13711.558998 0.407001 1.670788 2.630 53.7356 0.69022 18.369 0.303527 0.0842395 4.59847 0.00620165 9.01907 0.00332752 9.72905 3.46128
6601.00 1252.42 1.093274 2.979604 -13749.307550 0.407859 1.674799 2.632 53.7174 0.692671 18.3521 0.311751 0.0818633 4.60991 0.00607577 9.03298 0.00325806 9.86701 3.32496
6501.00 1251.84 1.095986 2.984099 -13789.378334 0.408784 1.679096 2.635 53.6982 0.695129 18.3346 0.320216 0.0795428 4.62139 0.00595137 9.04645 0.00318945 10.0062 3.1892
6401.00 1251.26 1.098901 2.989104 -13831.964917 0.409784 1.683701 2.638 53.6778 0.69758 18.3167 0.328922 0.0772793 4.63287 0.00582846 9.05942 0.00312168 10.1464 3.05411
6301.00 1250.66 1.102035 2.994663 -13877.277854 0.410863 1.688639 2.640 53.6567 0.700012 18.2983 0.337867 0.0750744 4.64427 0.00570707 9.07179 0.00305477 10.2875 2.9198
6201.00 1250.05 1.105406 3.000822 -13925.545926 0.412030 1.693934 2.643 53.6348 0.702407 18.2794 0.347045 0.0729295 4.65553 0.0055872 9.0835 0.00298873 10.4294 2.7864
6101.00 1249.43 1.109032 3.007629 -13977.017382 0.413292 1.699617 2.645 53.6124 0.70475 18.2602 0.356453 0.0708462 4.66659 0.00546889 9.09447 0.00292356 10.5719 2.65405
6001.00 1248.79 1.112933 3.015141 -14031.960989 0.414656 1.705715 2.648 53.5896 0.70702 18.2405 0.366083 0.0688259 4.67736 0.00535215 9.10462 0.00285928 10.7149 2.52289
5901.00 1248.14 1.117131 3.023414 -14090.666944 0.416132 1.712264 2.650 53.5668 0.709195 18.2205 0.375926 0.0668704 4.68775 0.00523702 9.11385 0.00279589 10.858 2.39308
5801.00 1247.47 1.121650 3.032511 -14153.447359 0.417729 1.719297 2.653 53.544 0.711253 18.2001 0.385972 0.0649812 4.69768 0.00512351 9.12208 0.00273342 11.0012 2.26476
5701.00 1246.78 1.126515 3.042498 -14220.636236 0.419458 1.726852 2.655 53.5217 0.713167 18.1795 0.396207 0.06316 4.70705 0.00501167 9.12922 0.00267187 11.1442 2.1381
5601.00 1246.07 1.131753 3.053447 -14292.588659 0.421327 1.734970 2.658 53.5001 0.714907 18.1585 0.406615 0.0614087 4.71575 0.00490151 9.13519 0.00261127 11.2867 2.01328
5501.00 1245.34 1.137390 3.065430 -14369.678675 0.423351 1.743691 2.662 53.4794 0.716442 18.1373 0.417179 0.059729 4.72367 0.00479309 9.13988 0.00255162 11.4285 1.89049
5401.00 1244.58 1.143456 3.078526 -14452.295711 0.425538 1.753060 2.665 53.4601 0.717738 18.1158 0.427878 0.0581228 4.73069 0.00468644 9.14321 0.00249295 11.5693 1.7699
5301.00 1243.81 1.149981 3.092812 -14540.838503 0.427903 1.763120 2.669 53.4425 0.718758 18.0942 0.438687 0.0565922 4.7367 0.00458161 9.14508 0.00243528 11.7087 1.65172
5201.00 1243.01 1.156993 3.108366 -14635.706111 0.430458 1.773915 2.673 53.427 0.719459 18.0723 0.449582 0.0551393 4.74155 0.00447863 9.14539 0.00237864 11.8465 1.53617
5101.00 1242.18 1.164521 3.125262 -14737.284613 0.433212 1.785487 2.677 53.414 0.7198 18.0503 0.460532 0.0537663 4.74511 0.00437758 9.14406 0.00232304 11.9822 1.42345
5001.00 1241.32 1.172591 3.143567 -14845.928496 0.436179 1.797874 2.682 53.404 0.719733 18.0281 0.471505 0.0524757 4.74724 0.00427849 9.14099 0.00226852 12.1156 1.3138
4901.00 1240.43 1.181221 3.163337 -14961.934947 0.439367 1.811105 2.688 53.3975 0.719209 18.0058 0.482465 0.05127 4.74778 0.00418145 9.13609 0.00221511 12.2461 1.20745
4801.00 1239.51 1.190427 3.184606 -15085.509567 0.442783 1.825199 2.694 53.3949 0.718175 17.9833 0.493375 0.050152 4.74659 0.0040865 9.12927 0.00216284 12.3734 1.10464
4701.00 1238.55 1.200209 3.207381 -15216.721439 0.446429 1.840159 2.701 53.3969 0.716577 17.9606 0.504194 0.0491245 4.7435 0.00399374 9.12044 0.00211175 12.497 1.00564
4601.00 1237.56 1.210555 3.231628 -15355.446148 0.450303 1.855961 2.709 53.4039 0.714361 17.9376 0.514878 0.0481908 4.73837 0.00390324 9.10954 0.00206188 12.6165 0.910685
4501.00 1236.52 1.221430 3.257259 -15501.295773 0.454394 1.872552 2.717 53.4166 0.711469 17.9145 0.525382 0.0473539 4.73104 0.00381509 9.09648 0.00201328 12.7313 0.820043
4401.00 1235.45 1.232774 3.284113 -15653.536426 0.458682 1.889836 2.727 53.4356 0.707848 17.891 0.53566 0.0466174 4.72137 0.0037294 9.08121 0.00196599 12.8411 0.733967
4301.00 1234.34 1.244490 3.311942 -15810.996488 0.463134 1.907665 2.737 53.4615 0.703446 17.867 0.545665 0.0459846 4.70922 0.00364626 9.06368 0.00192006 12.9452 0.652702
4201.00 1233.18 1.256442 3.340387 -15971.972433 0.467700 1.925826 2.749 53.4948 0.698216 17.8426 0.555351 0.0454588 4.69448 0.0035658 9.04386 0.00187557 13.0434 0.576479
4101.00 1231.97 1.268445 3.368965 -16134.144336 0.472316 1.944035 2.761 53.5361 0.692119 17.8174 0.564674 0.0450431 4.67707 0.00348812 9.02173 0.00183257 13.135 0.505501
4001.00 1230.72 1.280262 3.397059 -16294.518767 0.476894 1.961926 2.775 53.586 0.685127 17.7914 0.573595 0.0447402 4.65694 0.00341336 8.99731 0.00179112 13.2198 0.439933
3901.00 1229.43 1.291603 3.423915 -16449.421648 0.481328 1.979054 2.790 53.6448 0.677226 17.7643 0.582079 0.044552 4.63406 0.00334165 8.97065 0.00175129 13.2974 0.379893
3801.00 1228.10 1.302133 3.448658 -16594.565040 0.485495 1.994904 2.807 53.7128 0.668415 17.7358 0.590098 0.0444798 4.60849 0.00327311 8.94182 0.00171315 13.3676 0.325434
3701.00 1226.72 1.311483 3.470327 -16725.206784 0.489258 2.008910 2.824 53.7903 0.658714 17.7058 0.597632 0.0445231 4.58031 0.00320787 8.91095 0.00167677 13.4303 0.276537
3601.00 1225.32 1.319269 3.487928 -16836.408549 0.492472 2.020484 2.843 53.8773 0.648162 17.6738 0.604672 0.0446805 4.54968 0.00314604 8.8782 0.00164221 13.4856 0.233104
3501.00 1223.88 1.325122 3.500506 -16923.376220 0.494999 2.029064 2.863 53.9737 0.636815 17.6396 0.611216 0.0449486 4.51681 0.00308772 8.84376 0.00160952 13.5335 0.19495
3401.00 1222.41 1.328716 3.507219 -16981.842111 0.496714 2.034151 2.884 54.0793 0.624748 17.6028 0.617273 0.0453222 4.48196 0.00303302 8.80786 0.00157877 13.5743 0.161813
3301.00 1220.93 1.329797 3.507414 -17008.429927 0.497520 2.035360 2.906 54.1936 0.61205 17.563 0.62286 0.0457943 4.44543 0.002982 8.77077 0.00154998 13.6085 0.133358
3201.00 1219.44 1.328202 3.500686 -17000.938308 0.497349 2.032447 2.929 54.3162 0.59882 17.52 0.627999 0.0463565 4.40756 0.00293471 8.73276 0.00152319 13.6366 0.109192
3101.00 1217.94 1.323877 3.486898 -16958.494056 0.496177 2.025331 2.953 54.4465 0.585165 17.4734 0.632715 0.0469985 4.36869 0.00289119 8.69414 0.00149843 13.6592 0.0888865
3001.00 1216.45 1.316867 3.466188 -16881.554554 0.494016 2.014089 2.977 54.5837 0.571191 17.4229 0.637037 0.0477094 4.32918 0.00285146 8.65518 0.00147569 13.6767 0.0719949
2901.00 1214.98 1.307312 3.438934 -16771.773520 0.490912 1.998940 3.002 54.7273 0.557004 17.3683 0.640993 0.0484772 4.28936 0.00281552 8.61619 0.00145499 13.69 0.0580719
2801.00 1213.52 1.295428 3.405707 -16631.770016 0.486940 1.980219 3.027 54.8765 0.542705 17.3094 0.644606 0.0492898 4.24954 0.00278337 8.57742 0.00143633 13.6996 0.0466904
2701.00 1212.09 1.281480 3.367210 -16464.852775 0.482195 1.958337 3.053 55.0308 0.528387 17.2458 0.647902 0.0501351 4.21001 0.002755 8.53913 0.0014197 13.7061 0.0374539
2601.00 1210.69 1.265766 3.324227 -16274.747938 0.476784 1.933754 3.078 55.1896 0.514134 17.1776 0.650898 0.0510013 4.17101 0.00273039 8.50153 0.00140507 13.71 0.0300048
2501.00 1209.33 1.248596 3.277571 -16065.364436 0.470819 1.906949 3.104 55.3524 0.500025 17.1046 0.653611 0.0518772 4.13275 0.00270952 8.46484 0.00139246 13.7118 0.0240283
2401.00 1208.00 1.230278 3.228049 -15840.613843 0.464415 1.878397 3.129 55.5186 0.486125 17.0267 0.656055 0.0527523 4.09541 0.00269236 8.42922 0.00138183 13.7119 0.0192528
2301.00 1206.73 1.211110 3.176437 -15604.286112 0.457678 1.848554 3.154 55.6878 0.472494 16.9438 0.658242 0.0536173 4.05913 0.00267891 8.39482 0.00137317 13.7106 0.0154489
2201.00 1205.49 1.191372 3.123467 -15359.972301 0.450715 1.817853 3.179 55.8598 0.459182 16.8559 0.660184 0.0544635 4.02403 0.00266913 8.36176 0.00136646 13.7082 0.0124252
2101.00 1204.31 1.171325 3.069814 -15111.020460 0.443621 1.786692 3.204 56.0342 0.446233 16.763 0.66189 0.0552836 3.99018 0.002663 8.33016 0.0013617 13.7049 0.0100243
2001.00 1203.17 1.151208 3.016097 -14860.510555 0.436485 1.755438 3.229 56.2108 0.43368 16.6652 0.663371 0.0560711 3.95766 0.0026605 8.3001 0.00135885 13.701 0.0081184
1901.00 1202.08 1.131235 2.962874 -14611.237179 0.429389 1.724421 3.253 56.3892 0.421551 16.5625 0.664639 0.0568207 3.92649 0.00266159 8.27165 0.00135791 13.6965 0.00660435
1801.00 1201.04 1.111599 2.910638 -14365.693255 0.422405 1.693932 3.276 56.5694 0.409865 16.455 0.665705 0.0575281 3.89672 0.00266627 8.24485 0.00135884 13.6916 0.00539979
1701.00 1200.05 1.092466 2.859817 -14126.052611 0.415596 1.664226 3.300 56.751 0.398633 16.3428 0.666581 0.05819 3.86833 0.00267448 8.21975 0.00136163 13.6863 0.00443928
1601.00 1199.11 1.073974 2.810767 -13894.153297 0.409015 1.635515 3.322 56.9341 0.38786 16.2259 0.66728 0.0588039 3.84134 0.0026862 8.19638 0.00136626 13.6806 0.00367109
1501.00 1198.21 1.056238 2.763776 -13671.485653 0.402706 1.607970 3.345 57.1183 0.377544 16.1046 0.667816 0.0593683 3.81573 0.0027014 8.17474 0.00137269 13.6747 0.00305449
1401.00 1197.35 1.039341 2.719060 -13459.189335 0.396703 1.581721 3.367 57.3037 0.367677 15.979 0.6682 0.0598823 3.79147 0.00272004 8.15486 0.00138091 13.6686 0.0025575
1301.00 1196.53 1.023343 2.676763 -13258.062489 0.391028 1.556856 3.388 57.4901 0.358247 15.8492 0.668446 0.0603459 3.76854 0.0027421 8.13672 0.0013909 13.6621 0.00215507
1201.00 1195.75 1.008277 2.636969 -13068.583717 0.385696 1.533426 3.409 57.6775 0.349238 15.7154 0.668565 0.0607596 3.74691 0.00276756 8.12032 0.00140264 13.6554 0.00182756
