Title: Depleted MORB Mantle of Workmann & Hart 2005

Bulk Composition:
Pressure Temperature mass SiO2 TiO2 Al2O3 Fe2O3 Cr2O3 FeO MnO MgO NiO CaO Na2O 
44001.00 1554.26 100.138999 44.6479 0.12982 3.97448 0.190735 0.569209 7.99688 0.12982 38.6762 0.239667 3.1656 0.279611
43901.00 1554.03 100.138999 44.6479 0.12982 3.97448 0.190735 0.569209 7.99688 0.12982 38.6762 0.239667 3.1656 0.279611
43801.00 1553.81 100.138999 44.6479 0.12982 3.97448 0.190735 0.569209 7.99688 0.12982 38.6762 0.239667 3.1656 0.279611
43701.00 1553.59 100.138999 44.6479 0.12982 3.97448 0.190735 0.569209 7.99688 0.12982 38.6762 0.239667 3.1656 0.279611
43601.00 1553.37 100.138999 44.6479 0.12982 3.97448 0.190735 0.569209 7.99688 0.12982 38.6762 0.239667 3.1656 0.279611
43501.00 1553.14 100.138999 44.6479 0.12982 3.97448 0.190735 0.569209 7.99688 0.12982 38.6762 0.239667 3.1656 0.279611
43401.00 1552.92 100.138999 44.6479 0.12982 3.97448 0.190735 0.569209 7.99688 0.12982 38.6762 0.239667 3.1656 0.279611
43301.00 1552.69 100.138999 44.6479 0.12982 3.97448 0.190735 0.569209 7.99688 0.12982 38.6762 0.239667 3.1656 0.279611
43201.00 1552.47 100.138999 44.6479 0.12982 3.97448 0.190735 0.569209 7.99688 0.12982 38.6762 0.239667 3.1656 0.279611
43101.00 1552.24 100.138999 44.6479 0.12982 3.97448 0.190735 0.569209 7.99688 0.12982 38.6762 0.239667 3.1656 0.279611
43001.00 1552.02 100.138999 44.6479 0.12982 3.97448 0.190735 0.569209 7.99688 0.12982 38.6762 0.239667 3.1656 0.279611
42901.00 1551.79 100.138999 44.6479 0.12982 3.97448 0.190735 0.569209 7.99688 0.12982 38.6762 0.239667 3.1656 0.279611
42801.00 1551.56 100.138999 44.6479 0.12982 3.97448 0.190735 0.569209 7.99688 0.12982 38.6762 0.239667 3.1656 0.279611
42701.00 1551.34 100.138999 44.6479 0.12982 3.97448 0.190735 0.569209 7.99688 0.12982 38.6762 0.239667 3.1656 0.279611
42601.00 1551.11 100.138999 44.6479 0.12982 3.97448 0.190735 0.569209 7.99688 0.12982 38.6762 0.239667 3.1656 0.279611
42501.00 1550.88 100.138999 44.6479 0.12982 3.97448 0.190735 0.569209 7.99688 0.12982 38.6762 0.239667 3.1656 0.279611
42401.00 1550.65 100.138999 44.6479 0.12982 3.97448 0.190735 0.569209 7.99688 0.12982 38.6762 0.239667 3.1656 0.279611
42301.00 1550.42 100.138999 44.6479 0.12982 3.97448 0.190735 0.569209 7.99688 0.12982 38.6762 0.239667 3.1656 0.279611
42201.00 1550.19 100.138999 44.6479 0.12982 3.97448 0.190735 0.569209 7.99688 0.12982 38.6762 0.239667 3.1656 0.279611
42101.00 1549.96 100.138999 44.6479 0.12982 3.97448 0.190735 0.569209 7.99688 0.12982 38.6762 0.239667 3.1656 0.279611
42001.00 1549.73 100.138999 44.6479 0.12982 3.97448 0.190735 0.569209 7.99688 0.12982 38.6762 0.239667 3.1656 0.279611
41901.00 1549.50 100.138999 44.6479 0.12982 3.97448 0.190735 0.569209 7.99688 0.12982 38.6762 0.239667 3.1656 0.279611
41801.00 1549.27 100.138999 44.6479 0.12982 3.97448 0.190735 0.569209 7.99688 0.12982 38.6762 0.239667 3.1656 0.279611
41701.00 1549.03 100.138999 44.6479 0.12982 3.97448 0.190735 0.569209 7.99688 0.12982 38.6762 0.239667 3.1656 0.279611
41601.00 1548.80 100.138999 44.6479 0.12982 3.97448 0.190735 0.569209 7.99688 0.12982 38.6762 0.239667 3.1656 0.279611
41501.00 1548.57 100.138999 44.6479 0.12982 3.97448 0.190735 0.569209 7.99688 0.12982 38.6762 0.239667 3.1656 0.279611
41401.00 1548.33 100.138999 44.6479 0.12982 3.97448 0.190735 0.569209 7.99688 0.12982 38.6762 0.239667 3.1656 0.279611
41301.00 1548.10 100.138999 44.6479 0.12982 3.97448 0.190735 0.569209 7.99688 0.12982 38.6762 0.239667 3.1656 0.279611
41201.00 1547.86 100.138999 44.6479 0.12982 3.97448 0.190735 0.569209 7.99688 0.12982 38.6762 0.239667 3.1656 0.279611
41101.00 1547.63 100.138999 44.6479 0.12982 3.97448 0.190735 0.569209 7.99688 0.12982 38.6762 0.239667 3.1656 0.279611
41001.00 1547.39 100.138999 44.6479 0.12982 3.97448 0.190735 0.569209 7.99688 0.12982 38.6762 0.239667 3.1656 0.279611
40901.00 1547.15 100.138999 44.6479 0.12982 3.97448 0.190735 0.569209 7.99688 0.12982 38.6762 0.239667 3.1656 0.279611
40801.00 1546.92 100.138999 44.6479 0.12982 3.97448 0.190735 0.569209 7.99688 0.12982 38.6762 0.239667 3.1656 0.279611
40701.00 1546.68 100.138999 44.6479 0.12982 3.97448 0.190735 0.569209 7.99688 0.12982 38.6762 0.239667 3.1656 0.279611
40601.00 1546.44 100.138999 44.6479 0.12982 3.97448 0.190735 0.569209 7.99688 0.12982 38.6762 0.239667 3.1656 0.279611
40501.00 1546.20 100.138999 44.6479 0.12982 3.97448 0.190735 0.569209 7.99688 0.12982 38.6762 0.239667 3.1656 0.279611
40401.00 1545.96 100.138999 44.6479 0.12982 3.97448 0.190735 0.569209 7.99688 0.12982 38.6762 0.239667 3.1656 0.279611
40301.00 1545.72 100.138999 44.6479 0.12982 3.97448 0.190735 0.569209 7.99688 0.12982 38.6762 0.239667 3.1656 0.279611
40201.00 1545.48 100.138999 44.6479 0.12982 3.97448 0.190735 0.569209 7.99688 0.12982 38.6762 0.239667 3.1656 0.279611
40101.00 1545.24 100.138999 44.6479 0.12982 3.97448 0.190735 0.569209 7.99688 0.12982 38.6762 0.239667 3.1656 0.279611
40001.00 1545.00 100.138999 44.6479 0.12982 3.97448 0.190735 0.569209 7.99688 0.12982 38.6762 0.239667 3.1656 0.279611
39901.00 1544.76 100.138999 44.6479 0.12982 3.97448 0.190735 0.569209 7.99688 0.12982 38.6762 0.239667 3.1656 0.279611
39801.00 1544.51 100.138999 44.6479 0.12982 3.97448 0.190735 0.569209 7.99688 0.12982 38.6762 0.239667 3.1656 0.279611
39701.00 1544.27 100.138999 44.6479 0.12982 3.97448 0.190735 0.569209 7.99688 0.12982 38.6762 0.239667 3.1656 0.279611
39601.00 1544.03 100.138999 44.6479 0.12982 3.97448 0.190735 0.569209 7.99688 0.12982 38.6762 0.239667 3.1656 0.279611
39501.00 1543.78 100.138999 44.6479 0.12982 3.97448 0.190735 0.569209 7.99688 0.12982 38.6762 0.239667 3.1656 0.279611
39401.00 1543.54 100.138999 44.6479 0.12982 3.97448 0.190735 0.569209 7.99688 0.12982 38.6762 0.239667 3.1656 0.279611
39301.00 1543.29 100.138999 44.6479 0.12982 3.97448 0.190735 0.569209 7.99688 0.12982 38.6762 0.239667 3.1656 0.279611
39201.00 1543.04 100.138999 44.6479 0.12982 3.97448 0.190735 0.569209 7.99688 0.12982 38.6762 0.239667 3.1656 0.279611
39101.00 1542.80 100.138999 44.6479 0.12982 3.97448 0.190735 0.569209 7.99688 0.12982 38.6762 0.239667 3.1656 0.279611
39001.00 1542.55 100.138999 44.6479 0.12982 3.97448 0.190735 0.569209 7.99688 0.12982 38.6762 0.239667 3.1656 0.279611
38901.00 1542.30 100.138999 44.6479 0.12982 3.97448 0.190735 0.569209 7.99688 0.12982 38.6762 0.239667 3.1656 0.279611
38801.00 1542.05 100.138999 44.6479 0.12982 3.97448 0.190735 0.569209 7.99688 0.12982 38.6762 0.239667 3.1656 0.279611
38701.00 1541.81 100.138999 44.6479 0.12982 3.97448 0.190735 0.569209 7.99688 0.12982 38.6762 0.239667 3.1656 0.279611
38601.00 1541.56 100.138999 44.6479 0.12982 3.97448 0.190735 0.569209 7.99688 0.12982 38.6762 0.239667 3.1656 0.279611
38501.00 1541.31 100.138999 44.6479 0.12982 3.97448 0.190735 0.569209 7.99688 0.12982 38.6762 0.239667 3.1656 0.279611
38401.00 1541.05 100.138999 44.6479 0.12982 3.97448 0.190735 0.569209 7.99688 0.12982 38.6762 0.239667 3.1656 0.279611
38301.00 1540.80 100.138999 44.6479 0.12982 3.97448 0.190735 0.569209 7.99688 0.12982 38.6762 0.239667 3.1656 0.279611
38201.00 1540.55 100.138999 44.6479 0.12982 3.97448 0.190735 0.569209 7.99688 0.12982 38.6762 0.239667 3.1656 0.279611
38101.00 1540.30 100.138999 44.6479 0.12982 3.97448 0.190735 0.569209 7.99688 0.12982 38.6762 0.239667 3.1656 0.279611
38001.00 1540.04 100.138999 44.6479 0.12982 3.97448 0.190735 0.569209 7.99688 0.12982 38.6762 0.239667 3.1656 0.279611
37901.00 1539.79 100.138999 44.6479 0.12982 3.97448 0.190735 0.569209 7.99688 0.12982 38.6762 0.239667 3.1656 0.279611
37801.00 1539.54 100.138999 44.6479 0.12982 3.97448 0.190735 0.569209 7.99688 0.12982 38.6762 0.239667 3.1656 0.279611
37701.00 1539.28 100.138999 44.6479 0.12982 3.97448 0.190735 0.569209 7.99688 0.12982 38.6762 0.239667 3.1656 0.279611
37601.00 1539.02 100.138999 44.6479 0.12982 3.97448 0.190735 0.569209 7.99688 0.12982 38.6762 0.239667 3.1656 0.279611
37501.00 1538.77 100.138999 44.6479 0.12982 3.97448 0.190735 0.569209 7.99688 0.12982 38.6762 0.239667 3.1656 0.279611
37401.00 1538.51 100.138999 44.6479 0.12982 3.97448 0.190735 0.569209 7.99688 0.12982 38.6762 0.239667 3.1656 0.279611
37301.00 1538.25 100.138999 44.6479 0.12982 3.97448 0.190735 0.569209 7.99688 0.12982 38.6762 0.239667 3.1656 0.279611
37201.00 1537.99 100.138999 44.6479 0.12982 3.97448 0.190735 0.569209 7.99688 0.12982 38.6762 0.239667 3.1656 0.279611
37101.00 1537.73 100.138999 44.6479 0.12982 3.97448 0.190735 0.569209 7.99688 0.12982 38.6762 0.239667 3.1656 0.279611
37001.00 1537.47 100.138999 44.6479 0.12982 3.97448 0.190735 0.569209 7.99688 0.12982 38.6762 0.239667 3.1656 0.279611
36901.00 1537.21 100.138999 44.6479 0.12982 3.97448 0.190735 0.569209 7.99688 0.12982 38.6762 0.239667 3.1656 0.279611
36801.00 1536.95 100.138999 44.6479 0.12982 3.97448 0.190735 0.569209 7.99688 0.12982 38.6762 0.239667 3.1656 0.279611
36701.00 1536.69 100.138999 44.6479 0.12982 3.97448 0.190735 0.569209 7.99688 0.12982 38.6762 0.239667 3.1656 0.279611
36601.00 1536.43 100.138999 44.6479 0.12982 3.97448 0.190735 0.569209 7.99688 0.12982 38.6762 0.239667 3.1656 0.279611
36501.00 1536.16 100.138999 44.6479 0.12982 3.97448 0.190735 0.569209 7.99688 0.12982 38.6762 0.239667 3.1656 0.279611
36401.00 1535.90 100.138999 44.6479 0.12982 3.97448 0.190735 0.569209 7.99688 0.12982 38.6762 0.239667 3.1656 0.279611
36301.00 1535.63 100.138999 44.6479 0.12982 3.97448 0.190735 0.569209 7.99688 0.12982 38.6762 0.239667 3.1656 0.279611
36201.00 1535.37 100.138999 44.6479 0.12982 3.97448 0.190735 0.569209 7.99688 0.12982 38.6762 0.239667 3.1656 0.279611
36101.00 1535.10 100.138999 44.6479 0.12982 3.97448 0.190735 0.569209 7.99688 0.12982 38.6762 0.239667 3.1656 0.279611
36001.00 1534.83 100.138999 44.6479 0.12982 3.97448 0.190735 0.569209 7.99688 0.12982 38.6762 0.239667 3.1656 0.279611
35901.00 1534.57 100.138999 44.6479 0.12982 3.97448 0.190735 0.569209 7.99688 0.12982 38.6762 0.239667 3.1656 0.279611
35801.00 1534.30 100.138999 44.6479 0.12982 3.97448 0.190735 0.569209 7.99688 0.12982 38.6762 0.239667 3.1656 0.279611
35701.00 1534.03 100.138999 44.6479 0.12982 3.97448 0.190735 0.569209 7.99688 0.12982 38.6762 0.239667 3.1656 0.279611
35601.00 1533.76 100.138999 44.6479 0.12982 3.97448 0.190735 0.569209 7.99688 0.12982 38.6762 0.239667 3.1656 0.279611
35501.00 1533.49 100.138999 44.6479 0.12982 3.97448 0.190735 0.569209 7.99688 0.12982 38.6762 0.239667 3.1656 0.279611
35401.00 1533.21 100.138999 44.6479 0.12982 3.97448 0.190735 0.569209 7.99688 0.12982 38.6762 0.239667 3.1656 0.279611
35301.00 1532.94 100.138999 44.6479 0.12982 3.97448 0.190735 0.569209 7.99688 0.12982 38.6762 0.239667 3.1656 0.279611
35201.00 1532.67 100.138999 44.6479 0.12982 3.97448 0.190735 0.569209 7.99688 0.12982 38.6762 0.239667 3.1656 0.279611
35101.00 1532.39 100.138999 44.6479 0.12982 3.97448 0.190735 0.569209 7.99688 0.12982 38.6762 0.239667 3.1656 0.279611
35001.00 1532.12 100.138999 44.6479 0.12982 3.97448 0.190735 0.569209 7.99688 0.12982 38.6762 0.239667 3.1656 0.279611
34901.00 1531.84 100.138999 44.6479 0.12982 3.97448 0.190735 0.569209 7.99688 0.12982 38.6762 0.239667 3.1656 0.279611
34801.00 1531.57 100.138999 44.6479 0.12982 3.97448 0.190735 0.569209 7.99688 0.12982 38.6762 0.239667 3.1656 0.279611
34701.00 1531.29 100.138999 44.6479 0.12982 3.97448 0.190735 0.569209 7.99688 0.12982 38.6762 0.239667 3.1656 0.279611
34601.00 1531.01 100.138999 44.6479 0.12982 3.97448 0.190735 0.569209 7.99688 0.12982 38.6762 0.239667 3.1656 0.279611
34501.00 1530.73 100.138999 44.6479 0.12982 3.97448 0.190735 0.569209 7.99688 0.12982 38.6762 0.239667 3.1656 0.279611
34401.00 1530.45 100.138999 44.6479 0.12982 3.97448 0.190735 0.569209 7.99688 0.12982 38.6762 0.239667 3.1656 0.279611
34301.00 1530.17 100.138999 44.6479 0.12982 3.97448 0.190735 0.569209 7.99688 0.12982 38.6762 0.239667 3.1656 0.279611
34201.00 1529.89 100.138999 44.6479 0.12982 3.97448 0.190735 0.569209 7.99688 0.12982 38.6762 0.239667 3.1656 0.279611
34101.00 1529.60 100.138999 44.6479 0.12982 3.97448 0.190735 0.569209 7.99688 0.12982 38.6762 0.239667 3.1656 0.279611
34001.00 1529.32 100.138999 44.6479 0.12982 3.97448 0.190735 0.569209 7.99688 0.12982 38.6762 0.239667 3.1656 0.279611
33901.00 1529.03 100.138999 44.6479 0.12982 3.97448 0.190735 0.569209 7.99688 0.12982 38.6762 0.239667 3.1656 0.279611
33801.00 1528.75 100.138999 44.6479 0.12982 3.97448 0.190735 0.569209 7.99688 0.12982 38.6762 0.239667 3.1656 0.279611
33701.00 1528.46 100.138999 44.6479 0.12982 3.97448 0.190735 0.569209 7.99688 0.12982 38.6762 0.239667 3.1656 0.279611
33601.00 1528.17 100.138999 44.6479 0.12982 3.97448 0.190735 0.569209 7.99688 0.12982 38.6762 0.239667 3.1656 0.279611
33501.00 1527.88 100.138999 44.6479 0.12982 3.97448 0.190735 0.569209 7.99688 0.12982 38.6762 0.239667 3.1656 0.279611
33401.00 1527.59 100.138999 44.6479 0.12982 3.97448 0.190735 0.569209 7.99688 0.12982 38.6762 0.239667 3.1656 0.279611
33301.00 1527.30 100.138999 44.6479 0.12982 3.97448 0.190735 0.569209 7.99688 0.12982 38.6762 0.239667 3.1656 0.279611
33201.00 1527.01 100.138999 44.6479 0.12982 3.97448 0.190735 0.569209 7.99688 0.12982 38.6762 0.239667 3.1656 0.279611
33101.00 1526.72 100.138999 44.6479 0.12982 3.97448 0.190735 0.569209 7.99688 0.12982 38.6762 0.239667 3.1656 0.279611
33001.00 1526.42 100.138999 44.6479 0.12982 3.97448 0.190735 0.569209 7.99688 0.12982 38.6762 0.239667 3.1656 0.279611
32901.00 1526.13 100.138999 44.6479 0.12982 3.97448 0.190735 0.569209 7.99688 0.12982 38.6762 0.239667 3.1656 0.279611
32801.00 1525.83 100.138999 44.6479 0.12982 3.97448 0.190735 0.569209 7.99688 0.12982 38.6762 0.239667 3.1656 0.279611
32701.00 1525.54 100.136789 44.648 0.12979 3.97444 0.190727 0.569209 7.99673 0.12982 38.6766 0.239671 3.16556 0.279452
32601.00 1525.24 100.129176 44.6483 0.12969 3.9743 0.1907 0.569212 7.99621 0.129822 38.6778 0.239683 3.1654 0.278905
32501.00 1524.94 100.121407 44.6486 0.129588 3.97415 0.190672 0.569215 7.99568 0.129823 38.679 0.239697 3.16524 0.278349
32401.00 1524.64 100.113481 44.6489 0.129485 3.974 0.190644 0.569218 7.99515 0.129825 38.6802 0.23971 3.16508 0.277783
32301.00 1524.34 100.105394 44.6492 0.129379 3.97383 0.190615 0.569221 7.9946 0.129827 38.6814 0.239724 3.16491 0.277207
32201.00 1524.03 100.097147 44.6496 0.129272 3.97366 0.190586 0.569225 7.99404 0.129829 38.6827 0.239738 3.16473 0.276621
32101.00 1523.73 100.088737 44.6499 0.129163 3.97349 0.190555 0.569228 7.99348 0.129831 38.684 0.239753 3.16455 0.276025
32001.00 1523.42 100.080164 44.6502 0.129052 3.9733 0.190525 0.569233 7.99291 0.129833 38.6854 0.239767 3.16437 0.275419
31901.00 1523.12 100.071424 44.6505 0.12894 3.9731 0.190494 0.569237 7.99232 0.129836 38.6868 0.239782 3.16418 0.274804
31801.00 1522.81 100.062517 44.6509 0.128825 3.9729 0.190462 0.569242 7.99173 0.129838 38.6882 0.239798 3.16398 0.274179
31701.00 1522.50 100.053441 44.6512 0.128709 3.97269 0.190429 0.569247 7.99113 0.129841 38.6896 0.239814 3.16378 0.273543
31601.00 1522.19 100.044194 44.6516 0.128591 3.97246 0.190396 0.569253 7.99052 0.129843 38.691 0.23983 3.16357 0.272898
31501.00 1521.88 100.034775 44.652 0.128471 3.97223 0.190363 0.569259 7.98991 0.129846 38.6925 0.239846 3.16336 0.272243
31401.00 1521.57 100.025182 44.6523 0.12835 3.97199 0.190328 0.569265 7.98928 0.129849 38.694 0.239863 3.16314 0.271578
31301.00 1521.26 100.015413 44.6527 0.128226 3.97174 0.190294 0.569272 7.98864 0.129852 38.6956 0.23988 3.16292 0.270903
31201.00 1520.95 100.005466 44.6531 0.128101 3.97147 0.190258 0.56928 7.988 0.129855 38.6972 0.239898 3.16268 0.270218
31101.00 1520.63 99.995340 44.6535 0.127974 3.9712 0.190222 0.569287 7.98734 0.129859 38.6988 0.239916 3.16245 0.269523
31001.00 1520.31 99.985032 44.6538 0.127845 3.97091 0.190185 0.569296 7.98668 0.129862 38.7004 0.239934 3.1622 0.268818
30901.00 1520.00 99.974542 44.6542 0.127714 3.97062 0.190147 0.569305 7.98601 0.129866 38.7021 0.239953 3.16195 0.268103
30801.00 1519.68 99.963866 44.6546 0.127581 3.97031 0.190109 0.569314 7.98533 0.129869 38.7038 0.239972 3.16169 0.267379
30701.00 1519.36 99.953003 44.655 0.127447 3.96999 0.19007 0.569324 7.98463 0.129873 38.7055 0.239991 3.16143 0.266644
30601.00 1519.04 99.941952 44.6555 0.127311 3.96966 0.190031 0.569334 7.98393 0.129877 38.7073 0.240011 3.16116 0.265899
30501.00 1518.71 99.930710 44.6559 0.127173 3.96931 0.189991 0.569345 7.98322 0.129881 38.7091 0.240032 3.16088 0.265144
30401.00 1518.39 99.919274 44.6563 0.127033 3.96896 0.18995 0.569356 7.98251 0.129886 38.711 0.240052 3.16059 0.264379
30301.00 1518.06 99.907644 44.6568 0.126891 3.96858 0.189908 0.569369 7.98178 0.12989 38.7129 0.240073 3.16029 0.263604
30201.00 1517.74 99.895817 44.6572 0.126747 3.9682 0.189866 0.569381 7.98104 0.129895 38.7148 0.240095 3.15999 0.262819
30101.00 1517.41 99.883791 44.6576 0.126602 3.9678 0.189823 0.569395 7.98029 0.1299 38.7167 0.240117 3.15968 0.262024
30001.00 1517.08 99.871563 44.6581 0.126454 3.96739 0.189779 0.569409 7.97953 0.129905 38.7187 0.240139 3.15936 0.261219
29901.00 1516.75 99.859132 44.6586 0.126305 3.96696 0.189735 0.569424 7.97877 0.12991 38.7207 0.240162 3.15903 0.260404
29801.00 1516.42 99.846496 44.659 0.126154 3.96652 0.18969 0.569439 7.97799 0.129915 38.7228 0.240185 3.1587 0.259579
29701.00 1516.08 99.833651 44.6595 0.126001 3.96606 0.189644 0.569456 7.97721 0.129921 38.7249 0.240209 3.15835 0.258744
29601.00 1515.75 99.820597 44.66 0.125846 3.96559 0.189597 0.569473 7.97641 0.129926 38.727 0.240233 3.158 0.257899
29501.00 1515.41 99.807330 44.6605 0.12569 3.9651 0.18955 0.56949 7.97561 0.129932 38.7292 0.240258 3.15764 0.257044
29401.00 1515.07 99.793848 44.661 0.125531 3.9646 0.189501 0.569509 7.97479 0.129938 38.7314 0.240283 3.15727 0.256179
29301.00 1514.73 99.780149 44.6615 0.125371 3.96407 0.189453 0.569529 7.97397 0.129945 38.7337 0.240308 3.15688 0.255304
29201.00 1514.39 99.766231 44.662 0.125209 3.96354 0.189403 0.569549 7.97313 0.129951 38.736 0.240334 3.15649 0.254419
29101.00 1514.05 99.752090 44.6625 0.125044 3.96298 0.189352 0.56957 7.97229 0.129958 38.7383 0.240361 3.15609 0.253524
29001.00 1513.70 99.737725 44.663 0.124878 3.9624 0.189301 0.569592 7.97143 0.129965 38.7407 0.240388 3.15568 0.25262
28901.00 1513.36 99.723133 44.6636 0.124711 3.96181 0.189249 0.569615 7.97057 0.129972 38.7431 0.240416 3.15526 0.251705
28801.00 1513.01 99.708311 44.6641 0.124541 3.9612 0.189196 0.56964 7.9697 0.129979 38.7456 0.240444 3.15482 0.250781
28701.00 1512.66 99.693257 44.6646 0.124369 3.96057 0.189143 0.569665 7.96881 0.129987 38.7481 0.240472 3.15438 0.249847
28601.00 1512.31 99.677968 44.6652 0.124196 3.95992 0.189088 0.569691 7.96792 0.129995 38.7507 0.240501 3.15392 0.248903
28501.00 1511.96 99.662442 44.6657 0.12402 3.95925 0.189033 0.569718 7.96701 0.130003 38.7533 0.240531 3.15345 0.247949
28401.00 1511.61 99.646675 44.6663 0.123843 3.95856 0.188977 0.569746 7.9661 0.130011 38.7559 0.240561 3.15298 0.246985
28301.00 1511.25 99.630664 44.6669 0.123664 3.95785 0.18892 0.569775 7.96517 0.130019 38.7586 0.240592 3.15248 0.246012
28201.00 1510.89 99.614408 44.6675 0.123483 3.95711 0.188863 0.569806 7.96424 0.130028 38.7614 0.240623 3.15198 0.245029
28101.00 1510.53 99.597903 44.6681 0.123301 3.95636 0.188804 0.569838 7.96329 0.130037 38.7642 0.240655 3.15146 0.244036
28001.00 1510.17 99.581146 44.6687 0.123116 3.95558 0.188745 0.569871 7.96233 0.130046 38.767 0.240687 3.15094 0.243034
27901.00 1509.81 99.564135 44.6693 0.122929 3.95478 0.188685 0.569905 7.96137 0.130056 38.7699 0.24072 3.15039 0.242022
27801.00 1509.44 99.546866 44.6699 0.122741 3.95396 0.188624 0.56994 7.96039 0.130066 38.7728 0.240754 3.14984 0.241001
27701.00 1509.08 99.529335 44.6705 0.122551 3.95311 0.188562 0.569977 7.9594 0.130076 38.7758 0.240788 3.14927 0.23997
