Title: Depleted MORB Mantle of Workmann & Hart 2005

Phase Masses:
Pressure Temperature mass liquid_0 olivine_0 garnet_0 orthopyroxene_0 clinopyroxene_0 feldspar_0 spinel_0 
44001.00 1554.26 100.138999 0.897615 58.014463 12.669886 14.215907 13.211421 0.000000 1.129707 
43901.00 1554.03 100.138999 0.893763 58.017920 12.653456 14.216237 13.226459 0.000000 1.131163 
43801.00 1553.81 100.138999 0.889986 58.021290 12.636935 14.216660 13.241497 0.000000 1.132632 
43701.00 1553.59 100.138999 0.886281 58.024571 12.620320 14.217177 13.256534 0.000000 1.134116 
43601.00 1553.37 100.138999 0.882650 58.027763 12.603613 14.217790 13.271570 0.000000 1.135613 
43501.00 1553.14 100.138999 0.879093 58.030867 12.586810 14.218499 13.286604 0.000000 1.137125 
43401.00 1552.92 100.138999 0.875609 58.033883 12.569912 14.219305 13.301638 0.000000 1.138652 
43301.00 1552.69 100.138999 0.872199 58.036808 12.552917 14.220209 13.316671 0.000000 1.140194 
43201.00 1552.47 100.138999 0.868863 58.039645 12.535825 14.221213 13.331703 0.000000 1.141750 
43101.00 1552.24 100.138999 0.865600 58.042392 12.518633 14.222317 13.346734 0.000000 1.143322 
43001.00 1552.02 100.138999 0.862412 58.045049 12.501342 14.223523 13.361764 0.000000 1.144909 
42901.00 1551.79 100.138999 0.859297 58.047616 12.483950 14.224831 13.376793 0.000000 1.146512 
42801.00 1551.56 100.138999 0.856257 58.050092 12.466456 14.226242 13.391821 0.000000 1.148131 
42701.00 1551.34 100.138999 0.853291 58.052478 12.448858 14.227759 13.406847 0.000000 1.149766 
42601.00 1551.11 100.138999 0.850400 58.054772 12.431156 14.229381 13.421873 0.000000 1.151417 
42501.00 1550.88 100.138999 0.847583 58.056976 12.413349 14.231110 13.436897 0.000000 1.153085 
42401.00 1550.65 100.138999 0.844841 58.059087 12.395434 14.232947 13.451920 0.000000 1.154770 
42301.00 1550.42 100.138999 0.842174 58.061107 12.377412 14.234893 13.466942 0.000000 1.156472 
42201.00 1550.19 100.138999 0.839581 58.063034 12.359281 14.236949 13.481962 0.000000 1.158192 
42101.00 1549.96 100.138999 0.837065 58.064868 12.341039 14.239117 13.496982 0.000000 1.159928 
42001.00 1549.73 100.138999 0.834623 58.066610 12.322685 14.241398 13.512000 0.000000 1.161683 
41901.00 1549.50 100.138999 0.832257 58.068258 12.304218 14.243792 13.527018 0.000000 1.163456 
41801.00 1549.27 100.138999 0.829968 58.069812 12.285637 14.246302 13.542034 0.000000 1.165247 
41701.00 1549.03 100.138999 0.827754 58.071273 12.266939 14.248927 13.557048 0.000000 1.167057 
41601.00 1548.80 100.138999 0.825617 58.072638 12.248125 14.251671 13.572062 0.000000 1.168886 
41501.00 1548.57 100.138999 0.823556 58.073909 12.229192 14.254533 13.587075 0.000000 1.170734 
41401.00 1548.33 100.138999 0.821572 58.075084 12.210140 14.257515 13.602086 0.000000 1.172602 
41301.00 1548.10 100.138999 0.819666 58.076164 12.190965 14.260618 13.617097 0.000000 1.174489 
41201.00 1547.86 100.138999 0.817836 58.077148 12.171668 14.263845 13.632106 0.000000 1.176396 
41101.00 1547.63 100.138999 0.816085 58.078035 12.152246 14.267195 13.647115 0.000000 1.178324 
41001.00 1547.39 100.138999 0.814412 58.078824 12.132699 14.270670 13.662122 0.000000 1.180273 
40901.00 1547.15 100.138999 0.812817 58.079517 12.113023 14.274272 13.677129 0.000000 1.182242 
40801.00 1546.92 100.138999 0.811300 58.080111 12.093219 14.278001 13.692134 0.000000 1.184233 
40701.00 1546.68 100.138999 0.809863 58.080607 12.073284 14.281860 13.707139 0.000000 1.186245 
40601.00 1546.44 100.138999 0.808505 58.081004 12.053216 14.285850 13.722144 0.000000 1.188280 
40501.00 1546.20 100.138999 0.807227 58.081302 12.033014 14.289972 13.737147 0.000000 1.190337 
40401.00 1545.96 100.138999 0.806030 58.081499 12.012677 14.294227 13.752150 0.000000 1.192416 
40301.00 1545.72 100.138999 0.804912 58.081596 11.992201 14.298617 13.767153 0.000000 1.194519 
40201.00 1545.48 100.138999 0.803876 58.081593 11.971587 14.303144 13.782155 0.000000 1.196644 
40101.00 1545.24 100.138999 0.802921 58.081487 11.950831 14.307808 13.797157 0.000000 1.198794 
40001.00 1545.00 100.138999 0.802048 58.081280 11.929932 14.312612 13.812159 0.000000 1.200968 
39901.00 1544.76 100.138999 0.801258 58.080970 11.908889 14.317557 13.827161 0.000000 1.203166 
39801.00 1544.51 100.138999 0.800550 58.080557 11.887698 14.322643 13.842163 0.000000 1.205389 
39701.00 1544.27 100.138999 0.799925 58.080040 11.866358 14.327874 13.857165 0.000000 1.207637 
39601.00 1544.03 100.138999 0.799384 58.079418 11.844868 14.333250 13.872167 0.000000 1.209911 
39501.00 1543.78 100.138999 0.798928 58.078692 11.823225 14.338773 13.887170 0.000000 1.212211 
39401.00 1543.54 100.138999 0.798556 58.077860 11.801427 14.344445 13.902174 0.000000 1.214538 
39301.00 1543.29 100.138999 0.798269 58.076922 11.779472 14.350267 13.917179 0.000000 1.216891 
39201.00 1543.04 100.138999 0.798068 58.075877 11.757358 14.356240 13.932184 0.000000 1.219272 
39101.00 1542.80 100.138999 0.797954 58.074725 11.735082 14.362367 13.947192 0.000000 1.221680 
39001.00 1542.55 100.138999 0.797926 58.073464 11.712643 14.368649 13.962200 0.000000 1.224117 
38901.00 1542.30 100.138999 0.797987 58.072095 11.690037 14.375088 13.977210 0.000000 1.226582 
38801.00 1542.05 100.138999 0.798135 58.070616 11.667264 14.381685 13.992222 0.000000 1.229077 
38701.00 1541.81 100.138999 0.798372 58.069028 11.644320 14.388442 14.007237 0.000000 1.231601 
38601.00 1541.56 100.138999 0.798699 58.067328 11.621202 14.395361 14.022254 0.000000 1.234156 
38501.00 1541.31 100.138999 0.799116 58.065516 11.597909 14.402444 14.037273 0.000000 1.236740 
38401.00 1541.05 100.138999 0.799623 58.063593 11.574439 14.409692 14.052296 0.000000 1.239357 
38301.00 1540.80 100.138999 0.800222 58.061556 11.550787 14.417107 14.067322 0.000000 1.242004 
38201.00 1540.55 100.138999 0.800914 58.059406 11.526952 14.424692 14.082351 0.000000 1.244684 
38101.00 1540.30 100.138999 0.801698 58.057141 11.502932 14.432447 14.097385 0.000000 1.247396 
38001.00 1540.04 100.138999 0.802576 58.054760 11.478723 14.440375 14.112423 0.000000 1.250142 
37901.00 1539.79 100.138999 0.803549 58.052264 11.454322 14.448478 14.127465 0.000000 1.252922 
37801.00 1539.54 100.138999 0.804616 58.049650 11.429727 14.456757 14.142513 0.000000 1.255736 
37701.00 1539.28 100.138999 0.805780 58.046919 11.404935 14.465214 14.157566 0.000000 1.258584 
37601.00 1539.02 100.138999 0.807041 58.044069 11.379942 14.473852 14.172625 0.000000 1.261469 
37501.00 1538.77 100.138999 0.808399 58.041100 11.354747 14.482673 14.187691 0.000000 1.264389 
37401.00 1538.51 100.138999 0.809856 58.038010 11.329345 14.491677 14.202763 0.000000 1.267346 
37301.00 1538.25 100.138999 0.811413 58.034800 11.303734 14.500868 14.217843 0.000000 1.270341 
37201.00 1537.99 100.138999 0.813070 58.031467 11.277911 14.510248 14.232930 0.000000 1.273374 
37101.00 1537.73 100.138999 0.814828 58.028011 11.251872 14.519818 14.248025 0.000000 1.276445 
37001.00 1537.47 100.138999 0.816688 58.024432 11.225613 14.529581 14.263130 0.000000 1.279555 
36901.00 1537.21 100.138999 0.818652 58.020727 11.199132 14.539538 14.278244 0.000000 1.282706 
36801.00 1536.95 100.138999 0.820720 58.016897 11.172425 14.549692 14.293367 0.000000 1.285897 
36701.00 1536.69 100.138999 0.822893 58.012940 11.145489 14.560046 14.308502 0.000000 1.289130 
36601.00 1536.43 100.138999 0.825172 58.008855 11.118319 14.570600 14.323647 0.000000 1.292405 
36501.00 1536.16 100.138999 0.827559 58.004642 11.090912 14.581358 14.338804 0.000000 1.295723 
36401.00 1535.90 100.138999 0.830054 58.000299 11.063265 14.592322 14.353974 0.000000 1.299084 
36301.00 1535.63 100.138999 0.832659 57.995825 11.035373 14.603494 14.369157 0.000000 1.302490 
36201.00 1535.37 100.138999 0.835374 57.991220 11.007233 14.614876 14.384354 0.000000 1.305941 
36101.00 1535.10 100.138999 0.838201 57.986481 10.978840 14.626471 14.399566 0.000000 1.309439 
36001.00 1534.83 100.138999 0.841141 57.981609 10.950191 14.638282 14.414793 0.000000 1.312983 
35901.00 1534.57 100.138999 0.844196 57.976601 10.921282 14.650309 14.430037 0.000000 1.316574 
35801.00 1534.30 100.138999 0.847366 57.971458 10.892107 14.662557 14.445298 0.000000 1.320214 
35701.00 1534.03 100.138999 0.850652 57.966177 10.862663 14.675027 14.460576 0.000000 1.323904 
35601.00 1533.76 100.138999 0.854057 57.960757 10.832945 14.687722 14.475874 0.000000 1.327644 
35501.00 1533.49 100.138999 0.857581 57.955198 10.802949 14.700645 14.491192 0.000000 1.331435 
35401.00 1533.21 100.138999 0.861225 57.949498 10.772670 14.713797 14.506530 0.000000 1.335278 
35301.00 1532.94 100.138999 0.864992 57.943657 10.742103 14.727183 14.521890 0.000000 1.339175 
35201.00 1532.67 100.138999 0.868882 57.937671 10.711244 14.740803 14.537273 0.000000 1.343125 
35101.00 1532.39 100.138999 0.872897 57.931541 10.680087 14.754662 14.552680 0.000000 1.347131 
35001.00 1532.12 100.138999 0.877039 57.925266 10.648628 14.768762 14.568112 0.000000 1.351193 
34901.00 1531.84 100.138999 0.881308 57.918843 10.616861 14.783105 14.583570 0.000000 1.355311 
34801.00 1531.57 100.138999 0.885707 57.912272 10.584782 14.797694 14.599056 0.000000 1.359489 
34701.00 1531.29 100.138999 0.890237 57.905551 10.552383 14.812533 14.614570 0.000000 1.363725 
34601.00 1531.01 100.138999 0.894900 57.898679 10.519662 14.827624 14.630114 0.000000 1.368022 
34501.00 1530.73 100.138999 0.899697 57.891654 10.486610 14.842970 14.645689 0.000000 1.372380 
34401.00 1530.45 100.138999 0.904630 57.884475 10.453224 14.858573 14.661296 0.000000 1.376801 
34301.00 1530.17 100.138999 0.909700 57.877141 10.419496 14.874438 14.676938 0.000000 1.381286 
34201.00 1529.89 100.138999 0.914911 57.869649 10.385422 14.890567 14.692614 0.000000 1.385836 
34101.00 1529.60 100.138999 0.920262 57.862000 10.350994 14.906963 14.708327 0.000000 1.390452 
34001.00 1529.32 100.138999 0.925757 57.854190 10.316207 14.923630 14.724079 0.000000 1.395136 
33901.00 1529.03 100.138999 0.931396 57.846219 10.281054 14.940570 14.739870 0.000000 1.399889 
33801.00 1528.75 100.138999 0.937182 57.838085 10.245529 14.957787 14.755703 0.000000 1.404713 
33701.00 1528.46 100.138999 0.943118 57.829786 10.209624 14.975285 14.771579 0.000000 1.409607 
33601.00 1528.17 100.138999 0.949204 57.821321 10.173334 14.993066 14.787500 0.000000 1.414575 
33501.00 1527.88 100.138999 0.955443 57.812687 10.136651 15.011133 14.803467 0.000000 1.419617 
33401.00 1527.59 100.138999 0.961837 57.803884 10.099568 15.029492 14.819483 0.000000 1.424736 
33301.00 1527.30 100.138999 0.968388 57.794910 10.062077 15.048144 14.835549 0.000000 1.429931 
33201.00 1527.01 100.138999 0.975098 57.785762 10.024172 15.067094 14.851667 0.000000 1.435205 
33101.00 1526.72 100.138999 0.981970 57.776440 9.985844 15.086345 14.867839 0.000000 1.440560 
33001.00 1526.42 100.138999 0.989006 57.766940 9.947086 15.105902 14.884067 0.000000 1.445997 
32901.00 1526.13 100.138999 0.996208 57.757262 9.907890 15.125767 14.900354 0.000000 1.451518 
32801.00 1525.83 100.138999 1.003578 57.747403 9.868247 15.145945 14.916702 0.000000 1.457123 
32701.00 1525.54 100.136789 1.008904 57.737361 9.828156 15.166438 14.933113 0.000000 1.462816 
32601.00 1525.24 100.129176 1.008983 57.727128 9.787624 15.187246 14.949597 0.000000 1.468598 
32501.00 1524.94 100.121407 1.009062 57.716705 9.746643 15.208373 14.966155 0.000000 1.474470 
32401.00 1524.64 100.113481 1.009140 57.706087 9.705206 15.229823 14.982790 0.000000 1.480434 
32301.00 1524.34 100.105394 1.009219 57.695275 9.663303 15.251600 14.999505 0.000000 1.486493 
32201.00 1524.03 100.097147 1.009297 57.684264 9.620927 15.273708 15.016304 0.000000 1.492648 
32101.00 1523.73 100.088737 1.009376 57.673053 9.578069 15.296150 15.033189 0.000000 1.498900 
32001.00 1523.42 100.080164 1.009454 57.661641 9.534720 15.318932 15.050164 0.000000 1.505253 
31901.00 1523.12 100.071424 1.009532 57.650024 9.490871 15.342056 15.067233 0.000000 1.511708 
31801.00 1522.81 100.062517 1.009610 57.638200 9.446513 15.365528 15.084399 0.000000 1.518268 
31701.00 1522.50 100.053441 1.009689 57.626166 9.401636 15.389351 15.101665 0.000000 1.524933 
31601.00 1522.19 100.044194 1.009767 57.613922 9.356231 15.413531 15.119036 0.000000 1.531708 
31501.00 1521.88 100.034775 1.009845 57.601463 9.310288 15.438072 15.136514 0.000000 1.538593 
31401.00 1521.57 100.025182 1.009923 57.588788 9.263797 15.462977 15.154106 0.000000 1.545591 
31301.00 1521.26 100.015413 1.010001 57.575894 9.216746 15.488253 15.171813 0.000000 1.552706 
31201.00 1520.95 100.005466 1.010080 57.562778 9.169127 15.513903 15.189642 0.000000 1.559938 
31101.00 1520.63 99.995340 1.010158 57.549437 9.120927 15.539932 15.207595 0.000000 1.567291 
31001.00 1520.31 99.985032 1.010236 57.535870 9.072135 15.566346 15.225678 0.000000 1.574767 
30901.00 1520.00 99.974542 1.010314 57.522072 9.022741 15.593149 15.243896 0.000000 1.582369 
30801.00 1519.68 99.963866 1.010393 57.508042 8.972732 15.620347 15.262253 0.000000 1.590100 
30701.00 1519.36 99.953003 1.010471 57.493775 8.922096 15.647945 15.280755 0.000000 1.597961 
30601.00 1519.04 99.941952 1.010549 57.479271 8.870821 15.675947 15.299406 0.000000 1.605958 
30501.00 1518.71 99.930710 1.010628 57.464524 8.818894 15.704361 15.318212 0.000000 1.614091 
30401.00 1518.39 99.919274 1.010707 57.449532 8.766302 15.733190 15.337179 0.000000 1.622365 
30301.00 1518.06 99.907644 1.010785 57.434292 8.713032 15.762441 15.356312 0.000000 1.630782 
30201.00 1517.74 99.895817 1.010864 57.418801 8.659071 15.792119 15.375617 0.000000 1.639345 
30101.00 1517.41 99.883791 1.010943 57.403055 8.604403 15.822231 15.395100 0.000000 1.648058 
30001.00 1517.08 99.871563 1.011022 57.387050 8.549016 15.852783 15.414768 0.000000 1.656924 
29901.00 1516.75 99.859132 1.011101 57.370784 8.492893 15.883780 15.434627 0.000000 1.665947 
29801.00 1516.42 99.846496 1.011181 57.354252 8.436020 15.915229 15.454684 0.000000 1.675130 
29701.00 1516.08 99.833651 1.011260 57.337451 8.378381 15.947137 15.474946 0.000000 1.684477 
29601.00 1515.75 99.820597 1.011340 57.320377 8.319960 15.979509 15.495419 0.000000 1.693991 
29501.00 1515.41 99.807330 1.011420 57.303026 8.260741 16.012353 15.516112 0.000000 1.703676 
29401.00 1515.07 99.793848 1.011500 57.285395 8.200707 16.045676 15.537033 0.000000 1.713537 
29301.00 1514.73 99.780149 1.011581 57.267478 8.139841 16.079484 15.558188 0.000000 1.723578 
29201.00 1514.39 99.766231 1.011661 57.249272 8.078123 16.113786 15.579586 0.000000 1.733802 
29101.00 1514.05 99.752090 1.011742 57.230773 8.015538 16.148587 15.601237 0.000000 1.744214 
29001.00 1513.70 99.737725 1.011823 57.211975 7.952064 16.183897 15.623147 0.000000 1.754819 
28901.00 1513.36 99.723133 1.011905 57.192875 7.887683 16.219722 15.645328 0.000000 1.765620 
28801.00 1513.01 99.708311 1.011987 57.173468 7.822375 16.256070 15.667787 0.000000 1.776624 
28701.00 1512.66 99.693257 1.012069 57.153749 7.756120 16.292951 15.690536 0.000000 1.787834 
28601.00 1512.31 99.677968 1.012151 57.133713 7.688896 16.330371 15.713583 0.000000 1.799255 
28501.00 1511.96 99.662442 1.012234 57.113354 7.620681 16.368340 15.736939 0.000000 1.810894 
28401.00 1511.61 99.646675 1.012317 57.092668 7.551453 16.406867 15.760615 0.000000 1.822754 
28301.00 1511.25 99.630664 1.012400 57.071650 7.481188 16.445960 15.784623 0.000000 1.834843 
28201.00 1510.89 99.614408 1.012484 57.050293 7.409864 16.485629 15.808973 0.000000 1.847165 
28101.00 1510.53 99.597903 1.012568 57.028592 7.337455 16.525883 15.833679 0.000000 1.859726 
28001.00 1510.17 99.581146 1.012653 57.006541 7.263937 16.566733 15.858751 0.000000 1.872532 
27901.00 1509.81 99.564135 1.012738 56.984134 7.189282 16.608187 15.884203 0.000000 1.885590 
27801.00 1509.44 99.546866 1.012823 56.961365 7.113465 16.650257 15.910049 0.000000 1.898906 
27701.00 1509.08 99.529335 1.012909 56.938227 7.036457 16.692954 15.936302 0.000000 1.912487 
27601.00 1508.71 99.511541 1.012996 56.914714 6.958230 16.736287 15.962977 0.000000 1.926339 
27501.00 1508.34 99.493480 1.013083 56.890818 6.878754 16.780269 15.990087 0.000000 1.940470 
27401.00 1507.97 99.475149 1.013170 56.866533 6.797998 16.824911 16.017650 0.000000 1.954887 
27301.00 1507.59 99.456545 1.013258 56.841852 6.715932 16.870225 16.045681 0.000000 1.969597 
27201.00 1507.22 99.437663 1.013346 56.816766 6.632522 16.916223 16.074196 0.000000 1.984609 
27101.00 1506.84 99.418502 1.013435 56.791269 6.547735 16.962918 16.103213 0.000000 1.999931 
27001.00 1506.46 99.399057 1.013525 56.765352 6.461537 17.010323 16.132750 0.000000 2.015571 
26901.00 1506.08 99.379325 1.013615 56.739006 6.373890 17.058451 16.162825 0.000000 2.031538 
26801.00 1505.69 99.359303 1.013706 56.712223 6.284758 17.107318 16.193458 0.000000 2.047841 
26701.00 1505.30 99.338987 1.013797 56.684995 6.194102 17.156936 16.224669 0.000000 2.064489 
26601.00 1504.92 99.318374 1.013889 56.657312 6.101883 17.207320 16.256479 0.000000 2.081492 
26501.00 1504.52 99.297460 1.013981 56.629164 6.008059 17.258487 16.288909 0.000000 2.098860 
26401.00 1504.13 99.276241 1.014074 56.600542 5.912587 17.310451 16.321983 0.000000 2.116604 
26301.00 1503.74 99.254714 1.014168 56.571435 5.815424 17.363230 16.355724 0.000000 2.134734 
26201.00 1503.34 99.232875 1.014262 56.541833 5.716523 17.416839 16.390156 0.000000 2.153263 
26101.00 1502.94 99.210721 1.014357 56.511725 5.615836 17.471298 16.425306 0.000000 2.172200 
26001.00 1502.53 99.188246 1.014452 56.481099 5.513314 17.526623 16.461199 0.000000 2.191559 
25901.00 1502.13 99.165448 1.014548 56.449944 5.408906 17.582833 16.497864 0.000000 2.211353 
25801.00 1501.72 99.142323 1.014645 56.418247 5.302559 17.639948 16.535331 0.000000 2.231594 
25701.00 1501.31 99.118867 1.014742 56.385996 5.194217 17.697988 16.573628 0.000000 2.252296 
25601.00 1500.90 99.095076 1.014840 56.353177 5.083823 17.756974 16.612788 0.000000 2.273473 
25501.00 1500.48 99.070945 1.014938 56.319777 4.971318 17.816927 16.652844 0.000000 2.295141 
25401.00 1500.06 99.046471 1.015037 56.285782 4.856639 17.877870 16.693831 0.000000 2.317313 
25301.00 1499.64 99.021651 1.015137 56.251176 4.739722 17.939825 16.735783 0.000000 2.340008 
25201.00 1499.22 98.996479 1.015237 56.215944 4.620500 18.002818 16.778740 0.000000 2.363241 
25101.00 1498.79 98.970952 1.015337 56.180070 4.498902 18.066872 16.822741 0.000000 2.387029 
25001.00 1498.36 98.945065 1.015438 56.143537 4.374857 18.132015 16.867827 0.000000 2.411391 
24901.00 1497.93 98.918815 1.015539 56.106328 4.248289 18.198273 16.914041 0.000000 2.436347 
24801.00 1497.49 98.892198 1.015641 56.068424 4.119118 18.265673 16.961428 0.000000 2.461915 
24701.00 1497.05 98.865210 1.015742 56.029807 3.987262 18.334246 17.010036 0.000000 2.488116 
24601.00 1496.61 98.837846 1.015844 55.990457 3.852635 18.404022 17.059916 0.000000 2.514973 
24501.00 1496.17 98.810103 1.015947 55.950353 3.715148 18.475031 17.111118 0.000000 2.542507 
24401.00 1495.72 98.781976 1.016049 55.909473 3.574707 18.547307 17.163698 0.000000 2.570742 
24301.00 1495.27 98.753462 1.016151 55.867796 3.431214 18.620885 17.217714 0.000000 2.599703 
24201.00 1494.81 98.724557 1.016253 55.825296 3.284567 18.695799 17.273225 0.000000 2.629416 
24101.00 1494.35 98.695256 1.016354 55.781950 3.134659 18.772088 17.330297 0.000000 2.659909 
24001.00 1493.89 98.665558 1.016456 55.737732 2.981378 18.849789 17.388995 0.000000 2.691208 
23901.00 1493.43 98.635456 1.016556 55.692615 2.824607 18.928942 17.449390 0.000000 2.723345 
23801.00 1492.96 98.604949 1.016656 55.646570 2.664225 19.009591 17.511557 0.000000 2.756351 
23701.00 1492.48 98.574033 1.016755 55.599567 2.500101 19.091779 17.575573 0.000000 2.790257 
23601.00 1492.01 98.542705 1.016853 55.551576 2.332102 19.175552 17.641521 0.000000 2.825100 
23501.00 1491.53 98.510961 1.016950 55.502564 2.160086 19.260958 17.709489 0.000000 2.860914 
