Title: Depleted MORB Mantle of Workmann & Hart 2005

System Thermodynamic Data:
Pressure Temperature mass F phi S H V Cp dVdP*10^6 dVdT*10^6 fO2(absolute) fO2(absolute) rhol rhos viscosity aH2O chisqr
44001.00 1355.24 100.138999 0.0000000000000000 0.000000 249.606084 -1157416.062854 30.116093 124.548573 -19.886884 1424.304872 -6.230 -6.230 0.000000 3.325099 0.000 0 0.000
43901.00 1355.03 100.138999 0.0000000000000000 0.000000 249.606084 -1157717.233428 30.118022 124.555048 -19.893916 1424.237531 -6.235 -6.235 0.000000 3.324886 0.000 0 0.000
43801.00 1354.83 100.138999 0.0000000000000000 0.000000 249.606084 -1158018.423296 30.119952 124.561524 -19.900953 1424.170341 -6.240 -6.240 0.000000 3.324673 0.000 0 0.000
43701.00 1354.63 100.138999 0.0000000000000000 0.000000 249.606084 -1158319.632480 30.121885 124.567999 -19.907994 1424.103304 -6.244 -6.244 0.000000 3.324460 0.000 0 0.000
43601.00 1354.43 100.138999 0.0000000000000000 0.000000 249.606084 -1158620.861004 30.123820 124.574475 -19.915041 1424.036419 -6.249 -6.249 0.000000 3.324246 0.000 0 0.000
43501.00 1354.23 100.138999 0.0000000000000000 0.000000 249.606084 -1158922.108889 30.125757 124.580951 -19.922092 1423.969690 -6.254 -6.254 0.000000 3.324033 0.000 0 0.000
43401.00 1354.03 100.138999 0.0000000000000000 0.000000 249.606084 -1159223.376159 30.127697 124.587428 -19.929149 1423.903117 -6.259 -6.259 0.000000 3.323819 0.000 0 0.000
43301.00 1353.83 100.138999 0.0000000000000000 0.000000 249.606084 -1159524.662835 30.129639 124.593905 -19.936210 1423.836701 -6.263 -6.263 0.000000 3.323604 0.000 0 0.000
43201.00 1353.63 100.138999 0.0000000000000000 0.000000 249.606084 -1159825.968940 30.131583 124.600382 -19.943277 1423.770444 -6.268 -6.268 0.000000 3.323390 0.000 0 0.000
43101.00 1353.43 100.138999 0.0000000000000000 0.000000 249.606084 -1160127.294498 30.133529 124.606859 -19.950348 1423.704347 -6.273 -6.273 0.000000 3.323175 0.000 0 0.000
43001.00 1353.23 100.138999 0.0000000000000000 0.000000 249.606084 -1160428.639532 30.135478 124.613337 -19.957425 1423.638411 -6.278 -6.278 0.000000 3.322960 0.000 0 0.000
42901.00 1353.03 100.138999 0.0000000000000000 0.000000 249.606084 -1160730.004065 30.137429 124.619816 -19.964507 1423.572639 -6.283 -6.283 0.000000 3.322745 0.000 0 0.000
42801.00 1352.82 100.138999 0.0000000000000000 0.000000 249.606084 -1161031.388120 30.139382 124.626294 -19.971594 1423.507030 -6.287 -6.287 0.000000 3.322530 0.000 0 0.000
42701.00 1352.62 100.138999 0.0000000000000000 0.000000 249.606084 -1161332.791722 30.141338 124.632774 -19.978687 1423.441587 -6.292 -6.292 0.000000 3.322314 0.000 0 0.000
42601.00 1352.42 100.138999 0.0000000000000000 0.000000 249.606084 -1161634.214893 30.143296 124.639253 -19.985785 1423.376312 -6.297 -6.297 0.000000 3.322098 0.000 0 0.000
42501.00 1352.22 100.138999 0.0000000000000000 0.000000 249.606084 -1161935.657658 30.145257 124.645734 -19.992889 1423.311205 -6.302 -6.302 0.000000 3.321882 0.000 0 0.000
42401.00 1352.02 100.138999 0.0000000000000000 0.000000 249.606084 -1162237.120042 30.147220 124.652215 -19.999998 1423.246268 -6.307 -6.307 0.000000 3.321666 0.000 0 0.000
42301.00 1351.82 100.138999 0.0000000000000000 0.000000 249.606084 -1162538.602067 30.149185 124.658696 -20.007112 1423.181503 -6.312 -6.312 0.000000 3.321450 0.000 0 0.000
42201.00 1351.62 100.138999 0.0000000000000000 0.000000 249.606084 -1162840.103760 30.151153 124.665178 -20.014232 1423.116910 -6.317 -6.317 0.000000 3.321233 0.000 0 0.000
42101.00 1351.42 100.138999 0.0000000000000000 0.000000 249.606084 -1163141.625144 30.153124 124.671661 -20.021358 1423.052493 -6.322 -6.322 0.000000 3.321016 0.000 0 0.000
42001.00 1351.22 100.138999 0.0000000000000000 0.000000 249.606084 -1163443.166244 30.155097 124.678144 -20.028489 1422.988252 -6.327 -6.327 0.000000 3.320798 0.000 0 0.000
41901.00 1351.01 100.138999 0.0000000000000000 0.000000 249.606084 -1163744.727085 30.157072 124.684628 -20.035626 1422.924189 -6.332 -6.332 0.000000 3.320581 0.000 0 0.000
41801.00 1350.81 100.138999 0.0000000000000000 0.000000 249.606084 -1164046.307692 30.159050 124.691112 -20.042769 1422.860305 -6.337 -6.337 0.000000 3.320363 0.000 0 0.000
41701.00 1350.61 100.138999 0.0000000000000000 0.000000 249.606084 -1164347.908091 30.161030 124.697597 -20.049918 1422.796602 -6.342 -6.342 0.000000 3.320145 0.000 0 0.000
41601.00 1350.41 100.138999 0.0000000000000000 0.000000 249.606084 -1164649.528307 30.163013 124.704083 -20.057072 1422.733082 -6.347 -6.347 0.000000 3.319927 0.000 0 0.000
41501.00 1350.21 100.138999 0.0000000000000000 0.000000 249.606084 -1164951.168365 30.164999 124.710570 -20.064233 1422.669747 -6.352 -6.352 0.000000 3.319708 0.000 0 0.000
41401.00 1350.01 100.138999 0.0000000000000000 0.000000 249.606084 -1165252.828293 30.166987 124.717058 -20.071400 1422.606597 -6.357 -6.357 0.000000 3.319490 0.000 0 0.000
41301.00 1349.81 100.138999 0.0000000000000000 0.000000 249.606084 -1165554.508115 30.168978 124.723546 -20.078572 1422.543636 -6.362 -6.362 0.000000 3.319271 0.000 0 0.000
41201.00 1349.60 100.138999 0.0000000000000000 0.000000 249.606084 -1165856.207858 30.170971 124.730036 -20.085751 1422.480864 -6.367 -6.367 0.000000 3.319051 0.000 0 0.000
41101.00 1349.40 100.138999 0.0000000000000000 0.000000 249.606084 -1166157.927549 30.172967 124.736526 -20.092936 1422.418284 -6.372 -6.372 0.000000 3.318832 0.000 0 0.000
41001.00 1349.20 100.138999 0.0000000000000000 0.000000 249.606084 -1166459.667214 30.174966 124.743017 -20.100128 1422.355897 -6.377 -6.377 0.000000 3.318612 0.000 0 0.000
40901.00 1349.00 100.138999 0.0000000000000000 0.000000 249.606084 -1166761.426879 30.176968 124.749509 -20.107325 1422.293706 -6.382 -6.382 0.000000 3.318392 0.000 0 0.000
40801.00 1348.80 100.138999 0.0000000000000000 0.000000 249.606084 -1167063.206573 30.178972 124.756002 -20.114529 1422.231711 -6.387 -6.387 0.000000 3.318171 0.000 0 0.000
40701.00 1348.60 100.138999 0.0000000000000000 0.000000 249.606084 -1167365.006322 30.180979 124.762496 -20.121740 1422.169915 -6.392 -6.392 0.000000 3.317951 0.000 0 0.000
40601.00 1348.39 100.138999 0.0000000000000000 0.000000 249.606084 -1167666.826154 30.182988 124.768991 -20.128957 1422.108320 -6.398 -6.398 0.000000 3.317730 0.000 0 0.000
40501.00 1348.19 100.138999 0.0000000000000000 0.000000 249.606084 -1167968.666097 30.185001 124.775487 -20.136180 1422.046928 -6.403 -6.403 0.000000 3.317509 0.000 0 0.000
40401.00 1347.99 100.138999 0.0000000000000000 0.000000 249.606084 -1168270.526178 30.187016 124.781984 -20.143410 1421.985740 -6.408 -6.408 0.000000 3.317287 0.000 0 0.000
40301.00 1347.79 100.138999 0.0000000000000000 0.000000 249.606084 -1168572.406425 30.189034 124.788482 -20.150647 1421.924759 -6.413 -6.413 0.000000 3.317065 0.000 0 0.000
40201.00 1347.59 100.138999 0.0000000000000000 0.000000 249.606084 -1168874.306868 30.191055 124.794982 -20.157891 1421.863988 -6.418 -6.418 0.000000 3.316843 0.000 0 0.000
40101.00 1347.38 100.138999 0.0000000000000000 0.000000 249.606084 -1169176.227534 30.193079 124.801482 -20.165141 1421.803426 -6.424 -6.424 0.000000 3.316621 0.000 0 0.000
40001.00 1347.18 100.138999 0.0000000000000000 0.000000 249.606084 -1169478.168452 30.195105 124.807984 -20.172399 1421.743078 -6.429 -6.429 0.000000 3.316398 0.000 0 0.000
39901.00 1346.98 100.138999 0.0000000000000000 0.000000 249.606084 -1169780.129652 30.197135 124.814488 -20.179663 1421.682945 -6.434 -6.434 0.000000 3.316175 0.000 0 0.000
39801.00 1346.78 100.138999 0.0000000000000000 0.000000 249.606084 -1170082.111162 30.199168 124.820992 -20.186934 1421.623030 -6.439 -6.439 0.000000 3.315952 0.000 0 0.000
39701.00 1346.57 100.138999 0.0000000000000000 0.000000 249.606084 -1170384.113012 30.201203 124.827498 -20.194213 1421.563334 -6.445 -6.445 0.000000 3.315729 0.000 0 0.000
39601.00 1346.37 100.138999 0.0000000000000000 0.000000 249.606084 -1170686.135233 30.203242 124.834005 -20.201499 1421.503859 -6.450 -6.450 0.000000 3.315505 0.000 0 0.000
39501.00 1346.17 100.138999 0.0000000000000000 0.000000 249.606084 -1170988.177853 30.205283 124.840514 -20.208792 1421.444609 -6.455 -6.455 0.000000 3.315281 0.000 0 0.000
39401.00 1345.97 100.138999 0.0000000000000000 0.000000 249.606084 -1171290.240904 30.207328 124.847024 -20.216092 1421.385585 -6.461 -6.461 0.000000 3.315057 0.000 0 0.000
39301.00 1345.77 100.138999 0.0000000000000000 0.000000 249.606084 -1171592.324415 30.209375 124.853535 -20.223400 1421.326789 -6.466 -6.466 0.000000 3.314832 0.000 0 0.000
39201.00 1345.56 100.138999 0.0000000000000000 0.000000 249.606084 -1171894.428418 30.211426 124.860048 -20.230715 1421.268225 -6.472 -6.472 0.000000 3.314607 0.000 0 0.000
39101.00 1345.36 100.138999 0.0000000000000000 0.000000 249.606084 -1172196.552944 30.213480 124.866563 -20.238038 1421.209894 -6.477 -6.477 0.000000 3.314382 0.000 0 0.000
39001.00 1345.16 100.138999 0.0000000000000000 0.000000 249.606084 -1172498.698024 30.215537 124.873079 -20.245368 1421.151799 -6.482 -6.482 0.000000 3.314156 0.000 0 0.000
38901.00 1344.96 100.138999 0.0000000000000000 0.000000 249.606084 -1172800.863689 30.217597 124.879597 -20.252707 1421.093942 -6.488 -6.488 0.000000 3.313930 0.000 0 0.000
38801.00 1344.75 100.138999 0.0000000000000000 0.000000 249.606084 -1173103.049971 30.219660 124.886117 -20.260053 1421.036327 -6.493 -6.493 0.000000 3.313704 0.000 0 0.000
38701.00 1344.55 100.138999 0.0000000000000000 0.000000 249.606084 -1173405.256903 30.221727 124.892638 -20.267407 1420.978955 -6.499 -6.499 0.000000 3.313477 0.000 0 0.000
38601.00 1344.35 100.138999 0.0000000000000000 0.000000 249.606084 -1173707.484517 30.223797 124.899161 -20.274769 1420.921829 -6.504 -6.504 0.000000 3.313250 0.000 0 0.000
38501.00 1344.14 100.138999 0.0000000000000000 0.000000 249.606084 -1174009.732846 30.225870 124.905686 -20.282139 1420.864952 -6.510 -6.510 0.000000 3.313023 0.000 0 0.000
38401.00 1343.94 100.138999 0.0000000000000000 0.000000 249.606084 -1174312.001923 30.227946 124.912213 -20.289517 1420.808327 -6.515 -6.515 0.000000 3.312795 0.000 0 0.000
38301.00 1343.74 100.138999 0.0000000000000000 0.000000 249.606084 -1174614.291780 30.230026 124.918742 -20.296903 1420.751956 -6.521 -6.521 0.000000 3.312567 0.000 0 0.000
38201.00 1343.53 100.138999 0.0000000000000000 0.000000 249.606084 -1174916.602453 30.232109 124.925273 -20.304298 1420.695842 -6.526 -6.526 0.000000 3.312339 0.000 0 0.000
38101.00 1343.33 100.138999 0.0000000000000000 0.000000 249.606084 -1175218.933974 30.234196 124.931805 -20.311702 1420.639988 -6.532 -6.532 0.000000 3.312111 0.000 0 0.000
38001.00 1343.13 100.138999 0.0000000000000000 0.000000 249.606084 -1175521.286378 30.236286 124.938340 -20.319113 1420.584397 -6.538 -6.538 0.000000 3.311882 0.000 0 0.000
37901.00 1342.93 100.138999 0.0000000000000000 0.000000 249.606084 -1175823.659699 30.238379 124.944877 -20.326534 1420.529072 -6.543 -6.543 0.000000 3.311652 0.000 0 0.000
37801.00 1342.72 100.138999 0.0000000000000000 0.000000 249.606084 -1176126.053973 30.240476 124.951416 -20.333963 1420.474015 -6.549 -6.549 0.000000 3.311423 0.000 0 0.000
37701.00 1342.52 100.138999 0.0000000000000000 0.000000 249.606084 -1176428.469234 30.242577 124.957958 -20.341401 1420.419231 -6.554 -6.554 0.000000 3.311193 0.000 0 0.000
37601.00 1342.32 100.138999 0.0000000000000000 0.000000 249.606084 -1176730.905518 30.244681 124.964501 -20.348848 1420.364721 -6.560 -6.560 0.000000 3.310962 0.000 0 0.000
37501.00 1342.11 100.138999 0.0000000000000000 0.000000 249.606084 -1177033.362862 30.246789 124.971047 -20.356304 1420.310490 -6.566 -6.566 0.000000 3.310732 0.000 0 0.000
37401.00 1341.91 100.138999 0.0000000000000000 0.000000 249.606084 -1177335.841301 30.248900 124.977595 -20.363769 1420.256540 -6.571 -6.571 0.000000 3.310501 0.000 0 0.000
37301.00 1341.70 100.138999 0.0000000000000000 0.000000 249.606084 -1177638.340872 30.251015 124.984146 -20.371243 1420.202875 -6.577 -6.577 0.000000 3.310269 0.000 0 0.000
37201.00 1341.50 100.138999 0.0000000000000000 0.000000 249.606084 -1177940.861612 30.253134 124.990699 -20.378727 1420.149497 -6.583 -6.583 0.000000 3.310037 0.000 0 0.000
37101.00 1341.30 100.138999 0.0000000000000000 0.000000 249.606084 -1178243.403558 30.255256 124.997255 -20.386220 1420.096411 -6.589 -6.589 0.000000 3.309805 0.000 0 0.000
37001.00 1341.09 100.138999 0.0000000000000000 0.000000 249.606084 -1178545.966748 30.257382 125.003813 -20.393723 1420.043620 -6.594 -6.594 0.000000 3.309572 0.000 0 0.000
36901.00 1340.89 100.138999 0.0000000000000000 0.000000 249.606084 -1178848.551220 30.259513 125.010374 -20.401235 1419.991127 -6.600 -6.600 0.000000 3.309339 0.000 0 0.000
36801.00 1340.68 100.138999 0.0000000000000000 0.000000 249.606084 -1179151.157013 30.261647 125.016938 -20.408757 1419.938936 -6.606 -6.606 0.000000 3.309106 0.000 0 0.000
36701.00 1340.48 100.138999 0.0000000000000000 0.000000 249.606084 -1179453.784165 30.263785 125.023505 -20.416289 1419.887051 -6.612 -6.612 0.000000 3.308872 0.000 0 0.000
36601.00 1340.28 100.138999 0.0000000000000000 0.000000 249.606084 -1179756.432716 30.265926 125.030074 -20.423831 1419.835474 -6.618 -6.618 0.000000 3.308638 0.000 0 0.000
36501.00 1340.07 100.138999 0.0000000000000000 0.000000 249.606084 -1180059.102705 30.268072 125.036646 -20.431383 1419.784211 -6.624 -6.624 0.000000 3.308404 0.000 0 0.000
36401.00 1339.87 100.138999 0.0000000000000000 0.000000 249.606084 -1180361.794173 30.270222 125.043222 -20.438946 1419.733265 -6.630 -6.630 0.000000 3.308169 0.000 0 0.000
36301.00 1339.66 100.138999 0.0000000000000000 0.000000 249.606084 -1180664.507160 30.272376 125.049800 -20.446518 1419.682639 -6.635 -6.635 0.000000 3.307933 0.000 0 0.000
36201.00 1339.46 100.138999 0.0000000000000000 0.000000 249.606084 -1180967.241707 30.274534 125.056381 -20.454102 1419.632338 -6.641 -6.641 0.000000 3.307697 0.000 0 0.000
36101.00 1339.25 100.138999 0.0000000000000000 0.000000 249.606084 -1181269.997856 30.276696 125.062966 -20.461695 1419.582366 -6.647 -6.647 0.000000 3.307461 0.000 0 0.000
36001.00 1339.05 100.138999 0.0000000000000000 0.000000 249.606084 -1181572.775647 30.278863 125.069554 -20.469300 1419.532727 -6.653 -6.653 0.000000 3.307225 0.000 0 0.000
35901.00 1338.84 100.138999 0.0000000000000000 0.000000 249.606084 -1181875.575125 30.281033 125.076145 -20.476916 1419.483425 -6.659 -6.659 0.000000 3.306988 0.000 0 0.000
35801.00 1338.64 100.138999 0.0000000000000000 0.000000 249.606084 -1182178.396330 30.283208 125.082740 -20.484542 1419.434464 -6.665 -6.665 0.000000 3.306750 0.000 0 0.000
35701.00 1338.44 100.138999 0.0000000000000000 0.000000 249.606084 -1182481.239307 30.285388 125.089338 -20.492180 1419.385849 -6.671 -6.671 0.000000 3.306512 0.000 0 0.000
35601.00 1338.23 100.138999 0.0000000000000000 0.000000 249.606084 -1182784.104100 30.287571 125.095940 -20.499829 1419.337585 -6.677 -6.677 0.000000 3.306274 0.000 0 0.000
35501.00 1338.02 100.138999 0.0000000000000000 0.000000 249.606084 -1183086.990752 30.289760 125.102545 -20.507489 1419.289675 -6.684 -6.684 0.000000 3.306035 0.000 0 0.000
35401.00 1337.82 100.138999 0.0000000000000000 0.000000 249.606084 -1183389.899308 30.291952 125.109154 -20.515161 1419.242125 -6.690 -6.690 0.000000 3.305795 0.000 0 0.000
35301.00 1337.61 100.138999 0.0000000000000000 0.000000 249.606084 -1183692.829813 30.294150 125.115767 -20.522845 1419.194939 -6.696 -6.696 0.000000 3.305556 0.000 0 0.000
35201.00 1337.41 100.138999 0.0000000000000000 0.000000 249.606084 -1183995.782314 30.296351 125.122383 -20.530541 1419.148122 -6.702 -6.702 0.000000 3.305315 0.000 0 0.000
35101.00 1337.20 100.138999 0.0000000000000000 0.000000 249.606084 -1184298.756856 30.298558 125.129004 -20.538248 1419.101679 -6.708 -6.708 0.000000 3.305075 0.000 0 0.000
35001.00 1337.00 100.138999 0.0000000000000000 0.000000 249.606084 -1184601.753486 30.300769 125.135629 -20.545968 1419.055615 -6.714 -6.714 0.000000 3.304834 0.000 0 0.000
34901.00 1336.79 100.138999 0.0000000000000000 0.000000 249.606084 -1184904.772252 30.302985 125.142258 -20.553700 1419.009935 -6.721 -6.721 0.000000 3.304592 0.000 0 0.000
34801.00 1336.59 100.138999 0.0000000000000000 0.000000 249.606084 -1185207.813202 30.305206 125.148891 -20.561445 1418.964644 -6.727 -6.727 0.000000 3.304350 0.000 0 0.000
34701.00 1336.38 100.138999 0.0000000000000000 0.000000 249.606084 -1185510.876383 30.307431 125.155528 -20.569202 1418.919748 -6.733 -6.733 0.000000 3.304107 0.000 0 0.000
34601.00 1336.17 100.138999 0.0000000000000000 0.000000 249.606084 -1185813.961846 30.309662 125.162170 -20.576972 1418.875252 -6.739 -6.739 0.000000 3.303864 0.000 0 0.000
34501.00 1335.97 100.138999 0.0000000000000000 0.000000 249.606084 -1186117.069639 30.311898 125.168816 -20.584756 1418.831162 -6.746 -6.746 0.000000 3.303620 0.000 0 0.000
34401.00 1335.76 100.138999 0.0000000000000000 0.000000 249.606084 -1186420.199813 30.314138 125.175467 -20.592552 1418.787482 -6.752 -6.752 0.000000 3.303376 0.000 0 0.000
34301.00 1335.56 100.138999 0.0000000000000000 0.000000 249.606084 -1186723.352419 30.316384 125.182123 -20.600362 1418.744220 -6.758 -6.758 0.000000 3.303131 0.000 0 0.000
34201.00 1335.35 100.138999 0.0000000000000000 0.000000 249.606084 -1187026.527508 30.318635 125.188784 -20.608185 1418.701381 -6.765 -6.765 0.000000 3.302886 0.000 0 0.000
34101.00 1335.14 100.138999 0.0000000000000000 0.000000 249.606084 -1187329.725134 30.320891 125.195449 -20.616022 1418.658970 -6.771 -6.771 0.000000 3.302640 0.000 0 0.000
34001.00 1334.94 100.138999 0.0000000000000000 0.000000 249.606084 -1187632.945347 30.323153 125.202120 -20.623873 1418.616995 -6.778 -6.778 0.000000 3.302394 0.000 0 0.000
33901.00 1334.73 100.138999 0.0000000000000000 0.000000 249.606084 -1187936.188203 30.325419 125.208795 -20.631738 1418.575461 -6.784 -6.784 0.000000 3.302147 0.000 0 0.000
33801.00 1334.52 100.138999 0.0000000000000000 0.000000 249.606084 -1188239.453754 30.327692 125.215476 -20.639617 1418.534374 -6.791 -6.791 0.000000 3.301900 0.000 0 0.000
33701.00 1334.31 100.138999 0.0000000000000000 0.000000 249.606084 -1188542.742057 30.329970 125.222163 -20.647511 1418.493742 -6.797 -6.797 0.000000 3.301652 0.000 0 0.000
33601.00 1334.11 100.138999 0.0000000000000000 0.000000 249.606084 -1188846.053166 30.332253 125.228855 -20.655419 1418.453571 -6.804 -6.804 0.000000 3.301403 0.000 0 0.000
33501.00 1333.90 100.138999 0.0000000000000000 0.000000 249.606084 -1189149.387139 30.334542 125.235552 -20.663342 1418.413867 -6.810 -6.810 0.000000 3.301154 0.000 0 0.000
33401.00 1333.69 100.138999 0.0000000000000000 0.000000 249.606084 -1189452.744031 30.336837 125.242255 -20.671281 1418.374638 -6.817 -6.817 0.000000 3.300904 0.000 0 0.000
33301.00 1333.48 100.138999 0.0000000000000000 0.000000 249.606084 -1189756.123901 30.339138 125.248964 -20.679234 1418.335891 -6.824 -6.824 0.000000 3.300654 0.000 0 0.000
33201.00 1333.28 100.138999 0.0000000000000000 0.000000 249.606084 -1190059.526808 30.341444 125.255679 -20.687203 1418.297633 -6.830 -6.830 0.000000 3.300403 0.000 0 0.000
33101.00 1333.07 100.138999 0.0000000000000000 0.000000 249.606084 -1190362.952811 30.343757 125.262400 -20.695188 1418.259871 -6.837 -6.837 0.000000 3.300152 0.000 0 0.000
33001.00 1332.86 100.138999 0.0000000000000000 0.000000 249.606084 -1190666.401969 30.346076 125.269128 -20.703189 1418.222614 -6.844 -6.844 0.000000 3.299899 0.000 0 0.000
32901.00 1332.65 100.138999 0.0000000000000000 0.000000 249.606084 -1190969.874345 30.348401 125.275862 -20.711207 1418.185868 -6.850 -6.850 0.000000 3.299647 0.000 0 0.000
32801.00 1332.44 100.138999 0.0000000000000000 0.000000 249.606084 -1191273.370000 30.350732 125.282602 -20.719240 1418.149643 -6.857 -6.857 0.000000 3.299393 0.000 0 0.000
