Title: Depleted MORB Mantle of Workmann & Hart 2005

Liquid Composition:
Pressure Temperature mass SiO2 TiO2 Al2O3 Fe2O3 Cr2O3 FeO MnO MgO NiO CaO Na2O 
44001.00 1423.85 0.000000 ---
43901.00 1423.63 0.000000 ---
43801.00 1423.42 0.000000 ---
43701.00 1423.20 0.000000 ---
43601.00 1422.99 0.000000 ---
43501.00 1422.77 0.000000 ---
43401.00 1422.56 0.000000 ---
43301.00 1422.34 0.000000 ---
43201.00 1422.13 0.000000 ---
43101.00 1421.91 0.000000 ---
43001.00 1421.70 0.000000 ---
42901.00 1421.48 0.000000 ---
42801.00 1421.27 0.000000 ---
42701.00 1421.05 0.000000 ---
42601.00 1420.83 0.000000 ---
42501.00 1420.62 0.000000 ---
42401.00 1420.40 0.000000 ---
42301.00 1420.19 0.000000 ---
42201.00 1419.97 0.000000 ---
42101.00 1419.76 0.000000 ---
42001.00 1419.54 0.000000 ---
41901.00 1419.33 0.000000 ---
41801.00 1419.11 0.000000 ---
41701.00 1418.89 0.000000 ---
41601.00 1418.68 0.000000 ---
41501.00 1418.46 0.000000 ---
41401.00 1418.25 0.000000 ---
41301.00 1418.03 0.000000 ---
41201.00 1417.81 0.000000 ---
41101.00 1417.60 0.000000 ---
41001.00 1417.38 0.000000 ---
40901.00 1417.17 0.000000 ---
40801.00 1416.95 0.000000 ---
40701.00 1416.73 0.000000 ---
40601.00 1416.52 0.000000 ---
40501.00 1416.30 0.000000 ---
40401.00 1416.08 0.000000 ---
40301.00 1415.87 0.000000 ---
40201.00 1415.65 0.000000 ---
40101.00 1415.43 0.000000 ---
40001.00 1415.22 0.000000 ---
39901.00 1415.00 0.000000 ---
39801.00 1414.78 0.000000 ---
39701.00 1414.57 0.000000 ---
39601.00 1414.35 0.000000 ---
39501.00 1414.13 0.000000 ---
39401.00 1413.92 0.000000 ---
39301.00 1413.70 0.000000 ---
39201.00 1413.48 0.000000 ---
39101.00 1413.26 0.000000 ---
39001.00 1413.05 0.000000 ---
38901.00 1412.83 0.000000 ---
38801.00 1412.61 0.000000 ---
38701.00 1412.39 0.000000 ---
38601.00 1412.18 0.000000 ---
38501.00 1411.96 0.000000 ---
38401.00 1411.74 0.000000 ---
38301.00 1411.52 0.000000 ---
38201.00 1411.30 0.000000 ---
38101.00 1411.09 0.000000 ---
38001.00 1410.87 0.000000 ---
37901.00 1410.65 0.000000 ---
37801.00 1410.43 0.000000 ---
37701.00 1410.21 0.000000 ---
37601.00 1409.99 0.000000 ---
37501.00 1409.78 0.000000 ---
37401.00 1409.56 0.000000 ---
37301.00 1409.34 0.000000 ---
37201.00 1409.12 0.000000 ---
37101.00 1408.90 0.000000 ---
37001.00 1408.68 0.000000 ---
36901.00 1408.46 0.000000 ---
36801.00 1408.24 0.000000 ---
36701.00 1408.02 0.000000 ---
36601.00 1407.80 0.000000 ---
36501.00 1407.58 0.000000 ---
36401.00 1407.36 0.000000 ---
36301.00 1407.14 0.000000 ---
36201.00 1406.92 0.000000 ---
36101.00 1406.70 0.000000 ---
36001.00 1406.48 0.000000 ---
35901.00 1406.26 0.000000 ---
35801.00 1406.04 0.000000 ---
35701.00 1405.82 0.000000 ---
35601.00 1405.60 0.000000 ---
35501.00 1405.38 0.000000 ---
35401.00 1405.16 0.000000 ---
35301.00 1404.94 0.000000 ---
35201.00 1404.72 0.000000 ---
35101.00 1404.50 0.000000 ---
35001.00 1404.27 0.000000 ---
34901.00 1404.05 0.000000 ---
34801.00 1403.83 0.000000 ---
34701.00 1403.61 0.000000 ---
34601.00 1403.39 0.000000 ---
34501.00 1403.16 0.000000 ---
34401.00 1402.94 0.000000 ---
34301.00 1402.72 0.000000 ---
34201.00 1402.50 0.000000 ---
34101.00 1402.27 0.000000 ---
34001.00 1402.05 0.000000 ---
33901.00 1401.83 0.000000 ---
33801.00 1401.60 0.000000 ---
33701.00 1401.38 0.000000 ---
33601.00 1401.16 0.000000 ---
33501.00 1400.93 0.000000 ---
33401.00 1400.71 0.000000 ---
33301.00 1400.49 0.000000 ---
33201.00 1400.26 0.000000 ---
33101.00 1400.04 0.000000 ---
33001.00 1399.81 0.000000 ---
32901.00 1399.59 0.000000 ---
32801.00 1399.36 0.000000 ---
32701.00 1399.14 0.000000 ---
32601.00 1398.91 0.000000 ---
32501.00 1398.69 0.000000 ---
32401.00 1398.46 0.000000 ---
32301.00 1398.23 0.000000 ---
32201.00 1398.01 0.000000 ---
32101.00 1397.78 0.000000 ---
32001.00 1397.55 0.000000 ---
31901.00 1397.33 0.000000 ---
31801.00 1397.10 0.000000 ---
31701.00 1396.87 0.000000 ---
31601.00 1396.64 0.000000 ---
31501.00 1396.42 0.000000 ---
31401.00 1396.19 0.000000 ---
31301.00 1395.96 0.000000 ---
31201.00 1395.73 0.000000 ---
31101.00 1395.50 0.000000 ---
31001.00 1395.27 0.000000 ---
30901.00 1395.04 0.000000 ---
30801.00 1394.81 0.000000 ---
30701.00 1394.58 0.000000 ---
30601.00 1394.35 0.000000 ---
30501.00 1394.12 0.000000 ---
30401.00 1393.89 0.000000 ---
30301.00 1393.66 0.000000 ---
30201.00 1393.43 0.000000 ---
30101.00 1393.20 0.000000 ---
30001.00 1392.97 0.000000 ---
29901.00 1392.74 0.000000 ---
29801.00 1392.50 0.000000 ---
29701.00 1392.27 0.000000 ---
29601.00 1392.04 0.000000 ---
29501.00 1391.80 0.000000 ---
29401.00 1391.57 0.000000 ---
29301.00 1391.33 0.000000 ---
29201.00 1391.10 0.000000 ---
29101.00 1390.87 0.000000 ---
29001.00 1390.63 0.000000 ---
28901.00 1390.39 0.000000 ---
28801.00 1390.16 0.000000 ---
28701.00 1389.92 0.000000 ---
28601.00 1389.69 0.000000 ---
28501.00 1389.45 0.000000 ---
28401.00 1389.21 0.000000 ---
28301.00 1388.97 0.000000 ---
28201.00 1388.73 0.000000 ---
28101.00 1388.49 0.000000 ---
28001.00 1388.26 0.000000 ---
27901.00 1388.02 0.000000 ---
27801.00 1387.78 0.000000 ---
27701.00 1387.53 0.000000 ---
27601.00 1387.29 0.000000 ---
27501.00 1387.05 0.000000 ---
27401.00 1386.81 0.000000 ---
27301.00 1386.57 0.000000 ---
27201.00 1386.32 0.000000 ---
27101.00 1386.08 0.000000 ---
27001.00 1385.84 0.000000 ---
26901.00 1385.59 0.000000 ---
26801.00 1385.35 0.000000 ---
26701.00 1385.10 0.000000 ---
26601.00 1384.85 0.000000 ---
26501.00 1384.61 0.000000 ---
26401.00 1384.36 0.000000 ---
26301.00 1384.11 0.000000 ---
26201.00 1383.86 0.000000 ---
26101.00 1383.61 0.000000 ---
26001.00 1383.36 0.000000 ---
25901.00 1383.11 0.000000 ---
25801.00 1382.86 0.000000 ---
25701.00 1382.60 0.000000 ---
25601.00 1382.35 0.000000 ---
25501.00 1382.10 0.000000 ---
25401.00 1381.84 0.000000 ---
25301.00 1381.59 0.000000 ---
25201.00 1381.33 0.000000 ---
25101.00 1381.07 0.000000 ---
25001.00 1380.82 0.000000 ---
24901.00 1380.56 0.000000 ---
24801.00 1380.30 0.000000 ---
24701.00 1380.04 0.000000 ---
24601.00 1379.77 0.000000 ---
24501.00 1379.51 0.000000 ---
24401.00 1379.25 0.000000 ---
24301.00 1378.98 0.000000 ---
24201.00 1378.72 0.000000 ---
24101.00 1378.45 0.000000 ---
24001.00 1378.18 0.000000 ---
23901.00 1377.91 0.000000 ---
23801.00 1377.64 0.000000 ---
23701.00 1377.37 0.000000 ---
23601.00 1377.10 0.000000 ---
23501.00 1376.83 0.000000 ---
23401.00 1376.55 0.000000 ---
23301.00 1376.27 0.000000 ---
23201.00 1376.00 0.000000 ---
23101.00 1375.72 0.000000 ---
23001.00 1375.44 0.000000 ---
22901.00 1375.15 0.000000 ---
22801.00 1374.87 0.000000 ---
22701.00 1374.58 0.000000 ---
22601.00 1374.30 0.000000 ---
22501.00 1374.01 0.000000 ---
22401.00 1373.72 0.000000 ---
22301.00 1373.42 0.000000 ---
22201.00 1373.13 0.000000 ---
22101.00 1372.83 0.000000 ---
22001.00 1372.53 0.000000 ---
21901.00 1372.23 0.000000 ---
21801.00 1371.93 0.000000 ---
21701.00 1371.63 0.000000 ---
21601.00 1371.32 0.000000 ---
21501.00 1371.01 0.000000 ---
21401.00 1370.69 0.000000 ---
21301.00 1370.38 0.000000 ---
21201.00 1370.06 0.000000 ---
21101.00 1369.74 0.000000 ---
21001.00 1369.42 0.000000 ---
20901.00 1369.09 0.000000 ---
20801.00 1368.76 0.000000 ---
20701.00 1368.42 0.000000 ---
20601.00 1368.10 0.000000 ---
20501.00 1367.90 0.000000 ---
20401.00 1367.70 0.000000 ---
20301.00 1367.50 0.000000 ---
20201.00 1367.29 0.000000 ---
20101.00 1367.09 0.000000 ---
20001.00 1366.89 0.000000 ---
19901.00 1366.69 0.000000 ---
19801.00 1366.48 0.000000 ---
19701.00 1366.28 0.000000 ---
19601.00 1366.08 0.000000 ---
19501.00 1365.88 0.000000 ---
19401.00 1365.67 0.000000 ---
19301.00 1365.47 0.000000 ---
19201.00 1365.27 0.000000 ---
19101.00 1365.07 0.000000 ---
19001.00 1364.86 0.000000 ---
18901.00 1364.66 0.000000 ---
18801.00 1364.46 0.000000 ---
18701.00 1364.25 0.000000 ---
18601.00 1364.05 0.000000 ---
18501.00 1363.85 0.000000 ---
18401.00 1363.64 0.000000 ---
18301.00 1363.44 0.000000 ---
18201.00 1363.24 0.000000 ---
18101.00 1363.03 0.000000 ---
18001.00 1362.83 0.000000 ---
17901.00 1362.63 0.000000 ---
17801.00 1362.42 0.000000 ---
17701.00 1362.22 0.000000 ---
17601.00 1362.01 0.000000 ---
17501.00 1361.81 0.000000 ---
17401.00 1361.61 0.000000 ---
17301.00 1361.40 0.000000 ---
17201.00 1361.20 0.000000 ---
17101.00 1360.91 0.019491 47.8688 0.811113 16.3418 0.140206 0.28884 7.05962 0.0279173 12.2168 0.016307 5.21936 10.0092
17001.00 1360.57 0.054113 47.9156 0.81029 16.3582 0.141741 0.285549 7.04653 0.0276236 12.2086 0.0161301 5.26683 9.92296
16901.00 1360.22 0.089274 47.9621 0.809482 16.3743 0.143308 0.282269 7.03357 0.0273312 12.2005 0.0159542 5.31487 9.83631
16801.00 1359.87 0.124993 48.0084 0.808689 16.3902 0.144906 0.278998 7.02076 0.0270403 12.1925 0.0157791 5.36348 9.74925
16701.00 1359.52 0.161287 48.0544 0.807912 16.4059 0.146536 0.275739 7.0081 0.0267507 12.1846 0.015605 5.41266 9.66179
16601.00 1359.17 0.198176 48.1002 0.807151 16.4213 0.148199 0.272491 6.99557 0.0264626 12.1769 0.0154317 5.46242 9.57392
16501.00 1358.81 0.235681 48.1457 0.806405 16.4364 0.149896 0.269254 6.98319 0.0261759 12.1693 0.0152594 5.51276 9.48566
16401.00 1358.46 0.273820 48.1909 0.805674 16.4513 0.151628 0.26603 6.97096 0.0258906 12.1618 0.015088 5.5637 9.397
16301.00 1358.10 0.312618 48.2358 0.804958 16.4659 0.153396 0.262819 6.95887 0.0256067 12.1545 0.0149176 5.61523 9.30795
16201.00 1357.74 0.352095 48.2804 0.804257 16.4803 0.1552 0.25962 6.94692 0.0253243 12.1473 0.014748 5.66737 9.21851
16101.00 1357.38 0.392275 48.3247 0.803571 16.4944 0.157042 0.256436 6.93511 0.0250433 12.1402 0.0145794 5.72012 9.1287
16001.00 1357.01 0.433184 48.3687 0.8029 16.5083 0.158921 0.253265 6.92345 0.0247638 12.1333 0.0144117 5.77349 9.03851
15901.00 1356.65 0.474845 48.4124 0.802243 16.5218 0.16084 0.250108 6.91193 0.0244858 12.1265 0.014245 5.82747 8.94795
15801.00 1356.28 0.517286 48.4558 0.8016 16.5352 0.162799 0.246967 6.90055 0.0242092 12.1198 0.0140792 5.88209 8.85702
15701.00 1355.91 0.560535 48.4988 0.80097 16.5482 0.164799 0.243841 6.88931 0.023934 12.1132 0.0139143 5.93733 8.76574
15601.00 1355.53 0.604619 48.5415 0.800354 16.561 0.166841 0.240731 6.87821 0.0236604 12.1067 0.0137504 5.99321 8.67411
15501.00 1355.16 0.649569 48.5838 0.79975 16.5735 0.168926 0.237638 6.86725 0.0233882 12.1003 0.0135874 6.04973 8.58214
15401.00 1354.78 0.695417 48.6258 0.799159 16.5857 0.171054 0.234561 6.85642 0.0231176 12.094 0.0134254 6.1069 8.48984
15301.00 1354.40 0.742194 48.6674 0.79858 16.5977 0.173228 0.231502 6.84572 0.0228484 12.0879 0.0132643 6.16471 8.39721
15201.00 1354.01 0.789935 48.7086 0.798013 16.6094 0.175447 0.228461 6.83516 0.0225807 12.0818 0.0131042 6.22318 8.30426
15101.00 1353.63 0.838675 48.7495 0.797456 16.6208 0.177713 0.225438 6.82472 0.0223145 12.0758 0.012945 6.2823 8.211
15001.00 1353.24 0.888450 48.79 0.796909 16.6319 0.180027 0.222434 6.81441 0.0220499 12.0699 0.0127868 6.34208 8.11745
14901.00 1352.84 0.939299 48.8301 0.796372 16.6428 0.18239 0.21945 6.80423 0.0217868 12.0641 0.0126296 6.40253 8.02361
14801.00 1352.45 0.991262 48.8699 0.795843 16.6533 0.184803 0.216486 6.79416 0.0215251 12.0584 0.0124733 6.46363 7.92949
14701.00 1352.05 1.044381 48.9092 0.795322 16.6636 0.187267 0.213543 6.78421 0.0212651 12.0527 0.012318 6.5254 7.83512
14601.00 1351.65 1.054757 48.9481 0.794821 16.6736 0.189786 0.21061 6.77446 0.0210065 12.0472 0.0121637 6.58795 7.74032
14501.00 1351.24 1.054790 48.9864 0.794342 16.6833 0.192362 0.207687 6.76494 0.0207495 12.0418 0.0120103 6.6513 7.64505
14401.00 1350.84 1.054833 49.0241 0.793886 16.6927 0.194998 0.204774 6.75564 0.020494 12.0367 0.011858 6.71547 7.54934
14301.00 1350.43 1.054887 49.0613 0.793452 16.7018 0.197695 0.20187 6.74658 0.0202401 12.0317 0.0117066 6.78047 7.45316
14201.00 1350.02 1.054951 49.0978 0.793041 16.7106 0.200454 0.198977 6.73775 0.0199877 12.0269 0.0115562 6.84631 7.35654
14101.00 1349.61 1.055026 49.1338 0.792653 16.7191 0.203276 0.196095 6.72915 0.0197369 12.0223 0.0114068 6.913 7.25948
14001.00 1349.20 1.055113 49.1691 0.792288 16.7272 0.206165 0.193224 6.72079 0.0194876 12.0179 0.0112584 6.98054 7.16198
13901.00 1348.78 1.055212 49.2039 0.791945 16.7351 0.209121 0.190365 6.71266 0.0192399 12.0136 0.011111 7.04895 7.06404
13801.00 1348.37 1.055324 49.2379 0.791626 16.7426 0.212146 0.187518 6.70477 0.0189937 12.0095 0.0109646 7.11824 6.96567
13701.00 1347.95 1.055449 49.2714 0.791329 16.7498 0.215242 0.184684 6.69711 0.0187491 12.0056 0.0108192 7.18842 6.86688
13601.00 1347.53 1.055588 49.3041 0.791054 16.7567 0.21841 0.181863 6.68969 0.0185061 12.0018 0.0106748 7.25949 6.76768
13501.00 1347.11 1.055742 49.3362 0.790802 16.7633 0.221654 0.179056 6.6825 0.0182646 11.9982 0.0105314 7.33146 6.66807
13401.00 1346.68 1.055911 49.3676 0.790572 16.7695 0.224973 0.176263 6.67554 0.0180247 11.9947 0.0103889 7.40434 6.56807
13301.00 1346.25 1.056096 49.3983 0.790364 16.7754 0.228371 0.173484 6.66882 0.0177864 11.9914 0.0102475 7.47815 6.46767
13201.00 1345.82 1.056297 49.4283 0.790177 16.781 0.231849 0.17072 6.66234 0.0175496 11.9882 0.0101071 7.55287 6.36689
13101.00 1345.39 1.056517 49.4576 0.790011 16.7862 0.235408 0.167973 6.65608 0.0173145 11.9851 0.00996767 7.62853 6.26574
13001.00 1344.95 1.056754 49.4862 0.789866 16.7911 0.239052 0.165241 6.65005 0.0170809 11.9822 0.00982925 7.70513 6.16423
12901.00 1344.52 1.057011 49.5141 0.789741 16.7957 0.242782 0.162526 6.64426 0.0168489 11.9793 0.00969182 7.78267 6.06237
12801.00 1344.07 1.057289 49.5412 0.789635 16.8 0.246599 0.159828 6.63868 0.0166185 11.9766 0.0095554 7.86117 5.96017
12701.00 1343.63 1.057587 49.5675 0.789548 16.8039 0.250506 0.157148 6.63333 0.0163897 11.974 0.00941998 7.94061 5.85765
12601.00 1343.18 1.057907 49.5932 0.789478 16.8075 0.254504 0.154486 6.62819 0.0161625 11.9714 0.00928557 8.02101 5.75482
12501.00 1342.73 1.058251 49.618 0.789426 16.8107 0.258596 0.151843 6.62327 0.0159369 11.969 0.00915216 8.10237 5.6517
12401.00 1342.28 1.058619 49.6421 0.789389 16.8136 0.262783 0.14922 6.61855 0.0157129 11.9665 0.00901976 8.18469 5.5483
12301.00 1341.82 1.059013 49.6655 0.789367 16.8162 0.267066 0.146617 6.61404 0.0154905 11.9642 0.00888836 8.26798 5.44463
12201.00 1341.36 1.059433 49.6881 0.789358 16.8185 0.271449 0.144034 6.60973 0.0152697 11.9619 0.00875798 8.35222 5.34072
12101.00 1340.90 1.059882 49.71 0.78936 16.8204 0.275932 0.141473 6.60561 0.0150505 11.9596 0.0086286 8.43743 5.23659
12001.00 1340.43 1.060361 49.7311 0.789374 16.822 0.280517 0.138934 6.60167 0.014833 11.9573 0.00850024 8.52359 5.13225
11901.00 1339.96 1.060870 49.7514 0.789395 16.8232 0.285205 0.136417 6.59791 0.014617 11.955 0.00837289 8.61071 5.02772
11801.00 1339.49 1.061412 49.771 0.789424 16.8241 0.289999 0.133924 6.59432 0.0144027 11.9527 0.00824656 8.69878 4.92303
11701.00 1339.01 1.061989 49.7899 0.789457 16.8247 0.294899 0.131454 6.59088 0.0141901 11.9504 0.00812124 8.78779 4.81821
11601.00 1338.52 1.062601 49.808 0.789492 16.825 0.299906 0.129009 6.58759 0.0139791 11.948 0.00799695 8.87774 4.71327
11501.00 1338.03 1.063252 49.8254 0.789527 16.8249 0.305022 0.126588 6.58443 0.0137697 11.9456 0.00787367 8.96861 4.60824
11401.00 1337.54 1.063942 49.8421 0.789559 16.8246 0.310248 0.124194 6.5814 0.013562 11.943 0.00775143 9.06039 4.50315
11301.00 1337.04 1.064674 49.8582 0.789585 16.8239 0.315585 0.121826 6.57848 0.0133559 11.9404 0.00763021 9.15308 4.39803
11201.00 1336.54 1.065451 49.8735 0.789602 16.8229 0.321032 0.119486 6.57565 0.0131516 11.9376 0.00751002 9.24665 4.29291
11101.00 1336.03 1.066273 49.8882 0.789607 16.8216 0.32659 0.117174 6.57291 0.0129488 11.9346 0.00739087 9.34109 4.18782
11001.00 1335.52 1.067145 49.9023 0.789596 16.82 0.33226 0.11489 6.57023 0.0127478 11.9315 0.00727276 9.43638 4.08279
10901.00 1335.00 1.068068 49.9158 0.789564 16.8182 0.338042 0.112635 6.56759 0.0125485 11.9282 0.00715569 9.5325 3.97786
10801.00 1334.48 1.069046 49.9287 0.789508 16.816 0.343934 0.110411 6.56498 0.0123509 11.9246 0.00703966 9.62942 3.87307
10701.00 1333.95 1.070080 49.941 0.789422 16.8136 0.349936 0.108218 6.56237 0.012155 11.9208 0.00692469 9.72713 3.76844
10601.00 1333.41 1.071175 49.9529 0.789302 16.8109 0.356048 0.106056 6.55976 0.0119608 11.9167 0.00681078 9.82558 3.66403
10501.00 1332.86 1.072334 49.9643 0.789143 16.8079 0.362267 0.103927 6.5571 0.0117684 11.9123 0.00669793 9.92475 3.55987
10401.00 1332.31 1.073559 49.9752 0.788938 16.8047 0.368593 0.10183 6.55438 0.0115777 11.9076 0.00658615 10.0246 3.45601
10301.00 1331.76 1.074854 49.9858 0.788681 16.8012 0.375022 0.0997681 6.55157 0.0113888 11.9025 0.00647544 10.1251 3.35249
10201.00 1331.19 1.076225 49.9961 0.788366 16.7975 0.381552 0.0977406 6.54865 0.0112017 11.897 0.00636582 10.2262 3.24935
10101.00 1330.62 1.077673 50.0061 0.787986 16.7936 0.388181 0.0957486 6.54558 0.0110163 11.8911 0.00625729 10.3279 3.14665
10001.00 1330.04 1.079205 50.0158 0.787532 16.7894 0.394904 0.093793 6.54234 0.0108328 11.8847 0.00614985 10.4301 3.04443
9901.00 1329.45 1.080824 50.0254 0.786998 16.7851 0.401718 0.0918744 6.53889 0.0106511 11.8778 0.00604352 10.5328 2.94275
9801.00 1328.85 1.082535 50.035 0.786374 16.7805 0.408617 0.0899939 6.53521 0.0104712 11.8704 0.0059383 10.6358 2.84166
9701.00 1328.24 1.084343 50.0445 0.78565 16.7758 0.415597 0.088152 6.53124 0.0102932 11.8625 0.0058342 10.7393 2.74121
9601.00 1327.62 1.086253 50.0541 0.784818 16.7709 0.422652 0.0863498 6.52697 0.0101171 11.854 0.00573124 10.843 2.64147
9501.00 1326.99 1.088272 50.0638 0.783868 16.7658 0.429775 0.084588 6.52234 0.00994291 11.8448 0.00562942 10.947 2.54249
9401.00 1326.35 1.090405 50.0738 0.782787 16.7606 0.436958 0.0828676 6.51732 0.00977062 11.835 0.00552875 11.0511 2.44433
9301.00 1325.70 1.092658 50.0841 0.781564 16.7553 0.444195 0.0811893 6.51187 0.00960029 11.8245 0.00542925 11.1553 2.34706
9201.00 1325.04 1.095037 50.0948 0.780188 16.7498 0.451477 0.079554 6.50595 0.00943194 11.8133 0.00533093 11.2595 2.25074
9101.00 1324.37 1.097549 50.1061 0.778645 16.7442 0.458793 0.0779627 6.49949 0.00926558 11.8013 0.0052338 11.3636 2.15544
9001.00 1323.68 1.100201 50.118 0.776921 16.7385 0.466135 0.0764163 6.49247 0.00910125 11.7884 0.00513787 11.4676 2.06123
8901.00 1322.98 1.103000 50.1307 0.775003 16.7328 0.47349 0.0749157 6.48483 0.00893897 11.7748 0.00504316 11.5713 1.96818
8801.00 1322.27 1.105953 50.1443 0.772874 16.7269 0.480849 0.0734619 6.47652 0.00877878 11.7603 0.00494969 11.6746 1.87637
8701.00 1321.54 1.109067 50.159 0.770521 16.721 0.488197 0.0720559 6.46748 0.0086207 11.7449 0.00485746 11.7775 1.78587
8601.00 1320.80 1.112349 50.1748 0.767925 16.7151 0.495522 0.0706987 6.45766 0.00846478 11.7285 0.0047665 11.8798 1.69676
8501.00 1320.04 1.115806 50.192 0.765071 16.709 0.502809 0.0693914 6.44701 0.00831103 11.7112 0.00467682 11.9815 1.60912
8401.00 1319.26 1.119446 50.2106 0.761939 16.703 0.510045 0.0681351 6.43546 0.00815951 11.6928 0.00458844 12.0823 1.52305
8301.00 1318.47 1.123273 50.2309 0.758513 16.6969 0.517212 0.066931 6.42296 0.00801025 11.6734 0.00450139 12.1821 1.43861
8201.00 1317.65 1.127295 50.2529 0.754773 16.6907 0.524295 0.0657803 6.40945 0.00786329 11.6529 0.00441567 12.2809 1.35591
8101.00 1316.82 1.131515 50.277 0.7507 16.6846 0.531277 0.0646842 6.39486 0.00771867 11.6313 0.00433133 12.3785 1.27503
8001.00 1315.97 1.135936 50.3033 0.746275 16.6783 0.53814 0.0636441 6.37914 0.00757644 11.6086 0.00424837 12.4747 1.19607
7901.00 1315.10 1.140560 50.3319 0.741477 16.6721 0.544866 0.0626614 6.36222 0.00743665 11.5847 0.00416682 12.5694 1.11912
7801.00 1314.20 1.145386 50.3632 0.736288 16.6658 0.551436 0.0617375 6.34404 0.00729935 11.5595 0.00408671 12.6624 1.04428
