Title: Depleted MORB Mantle of Workmann & Hart 2005

System Thermodynamic Data:
Pressure Temperature mass F phi S H V Cp dVdP*10^6 dVdT*10^6 fO2(absolute) fO2(absolute) rhol rhos viscosity aH2O chisqr
44001.00 1472.66 100.138999 0.0000000000000000 0.000000 258.483157 -1142444.755152 30.304959 125.400090 -19.926756 1479.323381 -5.512 -5.512 0.000000 3.304377 0.000 0 0.000
43901.00 1472.44 100.138999 0.0000000000000000 0.000000 258.483157 -1142747.814527 30.306917 125.407270 -19.933960 1479.252183 -5.517 -5.517 0.000000 3.304163 0.000 0 0.000
43801.00 1472.21 100.138999 0.0000000000000000 0.000000 258.483157 -1143050.893492 30.308877 125.414452 -19.941170 1479.181180 -5.522 -5.522 0.000000 3.303950 0.000 0 0.000
43701.00 1471.98 100.138999 0.0000000000000000 0.000000 258.483157 -1143353.992072 30.310840 125.421634 -19.948386 1479.110376 -5.527 -5.527 0.000000 3.303736 0.000 0 0.000
43601.00 1471.76 100.138999 0.0000000000000000 0.000000 258.483157 -1143657.110296 30.312805 125.428818 -19.955608 1479.039772 -5.532 -5.532 0.000000 3.303521 0.000 0 0.000
43501.00 1471.53 100.138999 0.0000000000000000 0.000000 258.483157 -1143960.248191 30.314774 125.436002 -19.962837 1478.969369 -5.536 -5.536 0.000000 3.303307 0.000 0 0.000
43401.00 1471.31 100.138999 0.0000000000000000 0.000000 258.483157 -1144263.405786 30.316745 125.443188 -19.970072 1478.899169 -5.541 -5.541 0.000000 3.303092 0.000 0 0.000
43301.00 1471.08 100.138999 0.0000000000000000 0.000000 258.483157 -1144566.583109 30.318720 125.450375 -19.977313 1478.829175 -5.546 -5.546 0.000000 3.302877 0.000 0 0.000
43201.00 1470.86 100.138999 0.0000000000000000 0.000000 258.483157 -1144869.780188 30.320697 125.457562 -19.984561 1478.759389 -5.551 -5.551 0.000000 3.302662 0.000 0 0.000
43101.00 1470.63 100.138999 0.0000000000000000 0.000000 258.483157 -1145172.997052 30.322677 125.464751 -19.991816 1478.689811 -5.556 -5.556 0.000000 3.302446 0.000 0 0.000
43001.00 1470.40 100.138999 0.0000000000000000 0.000000 258.483157 -1145476.233730 30.324659 125.471941 -19.999077 1478.620445 -5.561 -5.561 0.000000 3.302230 0.000 0 0.000
42901.00 1470.18 100.138999 0.0000000000000000 0.000000 258.483157 -1145779.490251 30.326645 125.479133 -20.006345 1478.551291 -5.567 -5.567 0.000000 3.302014 0.000 0 0.000
42801.00 1469.95 100.138999 0.0000000000000000 0.000000 258.483157 -1146082.766644 30.328634 125.486325 -20.013620 1478.482353 -5.572 -5.572 0.000000 3.301797 0.000 0 0.000
42701.00 1469.72 100.138999 0.0000000000000000 0.000000 258.483157 -1146386.062940 30.330626 125.493519 -20.020902 1478.413632 -5.577 -5.577 0.000000 3.301580 0.000 0 0.000
42601.00 1469.50 100.138999 0.0000000000000000 0.000000 258.483157 -1146689.379167 30.332620 125.500714 -20.028191 1478.345131 -5.582 -5.582 0.000000 3.301363 0.000 0 0.000
42501.00 1469.27 100.138999 0.0000000000000000 0.000000 258.483157 -1146992.715356 30.334618 125.507910 -20.035486 1478.276851 -5.587 -5.587 0.000000 3.301146 0.000 0 0.000
42401.00 1469.05 100.138999 0.0000000000000000 0.000000 258.483157 -1147296.071538 30.336619 125.515108 -20.042789 1478.208795 -5.592 -5.592 0.000000 3.300928 0.000 0 0.000
42301.00 1468.82 100.138999 0.0000000000000000 0.000000 258.483157 -1147599.447742 30.338623 125.522308 -20.050099 1478.140964 -5.597 -5.597 0.000000 3.300710 0.000 0 0.000
42201.00 1468.59 100.138999 0.0000000000000000 0.000000 258.483157 -1147902.844000 30.340629 125.529508 -20.057416 1478.073361 -5.602 -5.602 0.000000 3.300492 0.000 0 0.000
42101.00 1468.37 100.138999 0.0000000000000000 0.000000 258.483157 -1148206.260342 30.342639 125.536710 -20.064740 1478.005989 -5.608 -5.608 0.000000 3.300273 0.000 0 0.000
42001.00 1468.14 100.138999 0.0000000000000000 0.000000 258.483157 -1148509.696800 30.344653 125.543914 -20.072072 1477.938849 -5.613 -5.613 0.000000 3.300054 0.000 0 0.000
41901.00 1467.91 100.138999 0.0000000000000000 0.000000 258.483157 -1148813.153405 30.346669 125.551120 -20.079411 1477.871944 -5.618 -5.618 0.000000 3.299835 0.000 0 0.000
41801.00 1467.69 100.138999 0.0000000000000000 0.000000 258.483157 -1149116.630189 30.348688 125.558326 -20.086758 1477.805276 -5.623 -5.623 0.000000 3.299615 0.000 0 0.000
41701.00 1467.46 100.138999 0.0000000000000000 0.000000 258.483157 -1149420.127184 30.350711 125.565535 -20.094112 1477.738847 -5.628 -5.628 0.000000 3.299395 0.000 0 0.000
41601.00 1467.23 100.138999 0.0000000000000000 0.000000 258.483157 -1149723.644423 30.352737 125.572745 -20.101474 1477.672661 -5.634 -5.634 0.000000 3.299175 0.000 0 0.000
41501.00 1467.01 100.138999 0.0000000000000000 0.000000 258.483157 -1150027.181937 30.354766 125.579957 -20.108843 1477.606719 -5.639 -5.639 0.000000 3.298955 0.000 0 0.000
41401.00 1466.78 100.138999 0.0000000000000000 0.000000 258.483157 -1150330.739761 30.356799 125.587171 -20.116220 1477.541024 -5.644 -5.644 0.000000 3.298734 0.000 0 0.000
41301.00 1466.55 100.138999 0.0000000000000000 0.000000 258.483157 -1150634.317926 30.358835 125.594387 -20.123606 1477.475578 -5.649 -5.649 0.000000 3.298513 0.000 0 0.000
41201.00 1466.33 100.138999 0.0000000000000000 0.000000 258.483157 -1150937.916467 30.360874 125.601604 -20.130999 1477.410385 -5.655 -5.655 0.000000 3.298291 0.000 0 0.000
41101.00 1466.10 100.138999 0.0000000000000000 0.000000 258.483157 -1151241.535417 30.362917 125.608824 -20.138400 1477.345446 -5.660 -5.660 0.000000 3.298069 0.000 0 0.000
41001.00 1465.87 100.138999 0.0000000000000000 0.000000 258.483157 -1151545.174809 30.364963 125.616045 -20.145809 1477.280764 -5.666 -5.666 0.000000 3.297847 0.000 0 0.000
40901.00 1465.64 100.138999 0.0000000000000000 0.000000 258.483157 -1151848.834679 30.367012 125.623269 -20.153227 1477.216342 -5.671 -5.671 0.000000 3.297624 0.000 0 0.000
40801.00 1465.42 100.138999 0.0000000000000000 0.000000 258.483157 -1152152.515061 30.369065 125.630494 -20.160653 1477.152184 -5.676 -5.676 0.000000 3.297401 0.000 0 0.000
40701.00 1465.19 100.138999 0.0000000000000000 0.000000 258.483157 -1152456.215990 30.371121 125.637722 -20.168087 1477.088290 -5.682 -5.682 0.000000 3.297178 0.000 0 0.000
40601.00 1464.96 100.138999 0.0000000000000000 0.000000 258.483157 -1152759.937501 30.373181 125.644951 -20.175530 1477.024665 -5.687 -5.687 0.000000 3.296955 0.000 0 0.000
40501.00 1464.73 100.138999 0.0000000000000000 0.000000 258.483157 -1153063.679629 30.375245 125.652183 -20.182981 1476.961312 -5.693 -5.693 0.000000 3.296731 0.000 0 0.000
40401.00 1464.51 100.138999 0.0000000000000000 0.000000 258.483157 -1153367.442410 30.377312 125.659418 -20.190441 1476.898232 -5.698 -5.698 0.000000 3.296506 0.000 0 0.000
40301.00 1464.28 100.138999 0.0000000000000000 0.000000 258.483157 -1153671.225881 30.379383 125.666654 -20.197910 1476.835430 -5.703 -5.703 0.000000 3.296282 0.000 0 0.000
40201.00 1464.05 100.138999 0.0000000000000000 0.000000 258.483157 -1153975.030077 30.381457 125.673893 -20.205388 1476.772908 -5.709 -5.709 0.000000 3.296056 0.000 0 0.000
40101.00 1463.82 100.138999 0.0000000000000000 0.000000 258.483157 -1154278.855036 30.383535 125.681134 -20.212874 1476.710669 -5.715 -5.715 0.000000 3.295831 0.000 0 0.000
40001.00 1463.59 100.138999 0.0000000000000000 0.000000 258.483157 -1154582.700795 30.385617 125.688378 -20.220370 1476.648717 -5.720 -5.720 0.000000 3.295605 0.000 0 0.000
39901.00 1463.37 100.138999 0.0000000000000000 0.000000 258.483157 -1154886.567392 30.387703 125.695624 -20.227874 1476.587054 -5.726 -5.726 0.000000 3.295379 0.000 0 0.000
39801.00 1463.14 100.138999 0.0000000000000000 0.000000 258.483157 -1155190.454864 30.389792 125.702873 -20.235388 1476.525684 -5.731 -5.731 0.000000 3.295152 0.000 0 0.000
39701.00 1462.91 100.138999 0.0000000000000000 0.000000 258.483157 -1155494.363249 30.391885 125.710124 -20.242912 1476.464610 -5.737 -5.737 0.000000 3.294926 0.000 0 0.000
39601.00 1462.68 100.138999 0.0000000000000000 0.000000 258.483157 -1155798.292586 30.393983 125.717378 -20.250445 1476.403835 -5.742 -5.742 0.000000 3.294698 0.000 0 0.000
39501.00 1462.45 100.138999 0.0000000000000000 0.000000 258.483157 -1156102.242913 30.396084 125.724635 -20.257987 1476.343363 -5.748 -5.748 0.000000 3.294470 0.000 0 0.000
39401.00 1462.23 100.138999 0.0000000000000000 0.000000 258.483157 -1156406.214271 30.398189 125.731895 -20.265539 1476.283198 -5.754 -5.754 0.000000 3.294242 0.000 0 0.000
39301.00 1462.00 100.138999 0.0000000000000000 0.000000 258.483157 -1156710.206699 30.400298 125.739157 -20.273101 1476.223342 -5.759 -5.759 0.000000 3.294014 0.000 0 0.000
39201.00 1461.77 100.138999 0.0000000000000000 0.000000 258.483157 -1157014.220237 30.402411 125.746423 -20.280672 1476.163799 -5.765 -5.765 0.000000 3.293785 0.000 0 0.000
39101.00 1461.54 100.138999 0.0000000000000000 0.000000 258.483157 -1157318.254925 30.404528 125.753691 -20.288254 1476.104574 -5.771 -5.771 0.000000 3.293555 0.000 0 0.000
39001.00 1461.31 100.138999 0.0000000000000000 0.000000 258.483157 -1157622.310805 30.406649 125.760963 -20.295845 1476.045669 -5.776 -5.776 0.000000 3.293326 0.000 0 0.000
38901.00 1461.08 100.138999 0.0000000000000000 0.000000 258.483157 -1157926.387917 30.408774 125.768238 -20.303447 1475.987089 -5.782 -5.782 0.000000 3.293096 0.000 0 0.000
38801.00 1460.85 100.138999 0.0000000000000000 0.000000 258.483157 -1158230.486303 30.410904 125.775515 -20.311060 1475.928837 -5.788 -5.788 0.000000 3.292865 0.000 0 0.000
38701.00 1460.62 100.138999 0.0000000000000000 0.000000 258.483157 -1158534.606006 30.413038 125.782796 -20.318682 1475.870917 -5.794 -5.794 0.000000 3.292634 0.000 0 0.000
38601.00 1460.39 100.138999 0.0000000000000000 0.000000 258.483157 -1158838.747068 30.415176 125.790081 -20.326316 1475.813333 -5.800 -5.800 0.000000 3.292402 0.000 0 0.000
38501.00 1460.16 100.138999 0.0000000000000000 0.000000 258.483157 -1159142.909531 30.417318 125.797369 -20.333960 1475.756090 -5.805 -5.805 0.000000 3.292171 0.000 0 0.000
38401.00 1459.94 100.138999 0.0000000000000000 0.000000 258.483157 -1159447.093440 30.419465 125.804660 -20.341615 1475.699191 -5.811 -5.811 0.000000 3.291938 0.000 0 0.000
38301.00 1459.71 100.138999 0.0000000000000000 0.000000 258.483157 -1159751.298838 30.421616 125.811955 -20.349280 1475.642640 -5.817 -5.817 0.000000 3.291705 0.000 0 0.000
38201.00 1459.48 100.138999 0.0000000000000000 0.000000 258.483157 -1160055.525769 30.423771 125.819253 -20.356957 1475.586442 -5.823 -5.823 0.000000 3.291472 0.000 0 0.000
38101.00 1459.25 100.138999 0.0000000000000000 0.000000 258.483157 -1160359.774279 30.425931 125.826555 -20.364645 1475.530601 -5.829 -5.829 0.000000 3.291239 0.000 0 0.000
38001.00 1459.02 100.138999 0.0000000000000000 0.000000 258.483157 -1160664.044412 30.428096 125.833861 -20.372345 1475.475121 -5.835 -5.835 0.000000 3.291004 0.000 0 0.000
37901.00 1458.79 100.138999 0.0000000000000000 0.000000 258.483157 -1160968.336215 30.430265 125.841171 -20.380055 1475.420008 -5.841 -5.841 0.000000 3.290770 0.000 0 0.000
37801.00 1458.56 100.138999 0.0000000000000000 0.000000 258.483157 -1161272.649733 30.432439 125.848485 -20.387778 1475.365265 -5.847 -5.847 0.000000 3.290535 0.000 0 0.000
37701.00 1458.33 100.138999 0.0000000000000000 0.000000 258.483157 -1161576.985013 30.434618 125.855802 -20.395512 1475.310897 -5.853 -5.853 0.000000 3.290299 0.000 0 0.000
37601.00 1458.10 100.138999 0.0000000000000000 0.000000 258.483157 -1161881.342103 30.436801 125.863124 -20.403258 1475.256909 -5.859 -5.859 0.000000 3.290063 0.000 0 0.000
37501.00 1457.87 100.138999 0.0000000000000000 0.000000 258.483157 -1162185.721051 30.438989 125.870450 -20.411017 1475.203306 -5.865 -5.865 0.000000 3.289827 0.000 0 0.000
37401.00 1457.63 100.138999 0.0000000000000000 0.000000 258.483157 -1162490.121904 30.441182 125.877780 -20.418787 1475.150093 -5.871 -5.871 0.000000 3.289590 0.000 0 0.000
37301.00 1457.40 100.138999 0.0000000000000000 0.000000 258.483157 -1162794.544711 30.443380 125.885114 -20.426570 1475.097274 -5.877 -5.877 0.000000 3.289352 0.000 0 0.000
37201.00 1457.17 100.138999 0.0000000000000000 0.000000 258.483157 -1163098.989522 30.445583 125.892453 -20.434365 1475.044855 -5.883 -5.883 0.000000 3.289114 0.000 0 0.000
37101.00 1456.94 100.138999 0.0000000000000000 0.000000 258.483157 -1163403.456387 30.447791 125.899797 -20.442173 1474.992842 -5.889 -5.889 0.000000 3.288876 0.000 0 0.000
37001.00 1456.71 100.138999 0.0000000000000000 0.000000 258.483157 -1163707.945357 30.450004 125.907145 -20.449994 1474.941238 -5.895 -5.895 0.000000 3.288637 0.000 0 0.000
36901.00 1456.48 100.138999 0.0000000000000000 0.000000 258.483157 -1164012.456482 30.452222 125.914498 -20.457827 1474.890051 -5.901 -5.901 0.000000 3.288397 0.000 0 0.000
36801.00 1456.25 100.138999 0.0000000000000000 0.000000 258.483157 -1164316.989814 30.454445 125.921855 -20.465674 1474.839285 -5.908 -5.908 0.000000 3.288157 0.000 0 0.000
36701.00 1456.02 100.138999 0.0000000000000000 0.000000 258.483157 -1164621.545405 30.456674 125.929218 -20.473534 1474.788945 -5.914 -5.914 0.000000 3.287916 0.000 0 0.000
36601.00 1455.79 100.138999 0.0000000000000000 0.000000 258.483157 -1164926.123309 30.458908 125.936585 -20.481408 1474.739039 -5.920 -5.920 0.000000 3.287675 0.000 0 0.000
36501.00 1455.55 100.138999 0.0000000000000000 0.000000 258.483157 -1165230.723578 30.461147 125.943958 -20.489295 1474.689571 -5.926 -5.926 0.000000 3.287434 0.000 0 0.000
36401.00 1455.32 100.138999 0.0000000000000000 0.000000 258.483157 -1165535.346268 30.463392 125.951336 -20.497197 1474.640547 -5.933 -5.933 0.000000 3.287191 0.000 0 0.000
36301.00 1455.09 100.138999 0.0000000000000000 0.000000 258.483157 -1165839.991432 30.465642 125.958719 -20.505112 1474.591974 -5.939 -5.939 0.000000 3.286949 0.000 0 0.000
36201.00 1454.86 100.138999 0.0000000000000000 0.000000 258.483157 -1166144.659127 30.467898 125.966108 -20.513041 1474.543857 -5.945 -5.945 0.000000 3.286705 0.000 0 0.000
36101.00 1454.63 100.138999 0.0000000000000000 0.000000 258.483157 -1166449.349408 30.470159 125.973502 -20.520985 1474.496204 -5.952 -5.952 0.000000 3.286461 0.000 0 0.000
36001.00 1454.39 100.138999 0.0000000000000000 0.000000 258.483157 -1166754.062332 30.472427 125.980902 -20.528943 1474.449020 -5.958 -5.958 0.000000 3.286217 0.000 0 0.000
35901.00 1454.16 100.138999 0.0000000000000000 0.000000 258.483157 -1167058.797957 30.474699 125.988307 -20.536916 1474.402312 -5.965 -5.965 0.000000 3.285972 0.000 0 0.000
35801.00 1453.93 100.138999 0.0000000000000000 0.000000 258.483157 -1167363.556341 30.476978 125.995719 -20.544904 1474.356087 -5.971 -5.971 0.000000 3.285726 0.000 0 0.000
35701.00 1453.69 100.138999 0.0000000000000000 0.000000 258.483157 -1167668.337543 30.479263 126.003137 -20.552907 1474.310352 -5.978 -5.978 0.000000 3.285480 0.000 0 0.000
35601.00 1453.46 100.138999 0.0000000000000000 0.000000 258.483157 -1167973.141623 30.481554 126.010560 -20.560926 1474.265113 -5.984 -5.984 0.000000 3.285233 0.000 0 0.000
35501.00 1453.23 100.138999 0.0000000000000000 0.000000 258.483157 -1168277.968641 30.483851 126.017990 -20.568960 1474.220378 -5.991 -5.991 0.000000 3.284985 0.000 0 0.000
35401.00 1453.00 100.138999 0.0000000000000000 0.000000 258.483157 -1168582.818659 30.486154 126.025426 -20.577009 1474.176154 -5.997 -5.997 0.000000 3.284737 0.000 0 0.000
35301.00 1452.76 100.138999 0.0000000000000000 0.000000 258.483157 -1168887.691737 30.488463 126.032869 -20.585075 1474.132448 -6.004 -6.004 0.000000 3.284488 0.000 0 0.000
35201.00 1452.53 100.138999 0.0000000000000000 0.000000 258.483157 -1169192.587941 30.490779 126.040319 -20.593157 1474.089269 -6.010 -6.010 0.000000 3.284239 0.000 0 0.000
35101.00 1452.29 100.138999 0.0000000000000000 0.000000 258.483157 -1169497.507332 30.493101 126.047775 -20.601256 1474.046623 -6.017 -6.017 0.000000 3.283989 0.000 0 0.000
35001.00 1452.06 100.138999 0.0000000000000000 0.000000 258.483157 -1169802.449975 30.495429 126.055238 -20.609371 1474.004519 -6.024 -6.024 0.000000 3.283738 0.000 0 0.000
34901.00 1451.83 100.138999 0.0000000000000000 0.000000 258.483157 -1170107.415937 30.497764 126.062709 -20.617503 1473.962964 -6.030 -6.030 0.000000 3.283487 0.000 0 0.000
34801.00 1451.59 100.138999 0.0000000000000000 0.000000 258.483157 -1170412.405282 30.500106 126.070186 -20.625652 1473.921967 -6.037 -6.037 0.000000 3.283234 0.000 0 0.000
34701.00 1451.36 100.138999 0.0000000000000000 0.000000 258.483157 -1170717.418079 30.502454 126.077671 -20.633819 1473.881536 -6.044 -6.044 0.000000 3.282982 0.000 0 0.000
34601.00 1451.12 100.138999 0.0000000000000000 0.000000 258.483157 -1171022.454394 30.504810 126.085163 -20.642003 1473.841681 -6.051 -6.051 0.000000 3.282728 0.000 0 0.000
34501.00 1450.89 100.138999 0.0000000000000000 0.000000 258.483157 -1171327.514298 30.507172 126.092663 -20.650206 1473.802409 -6.057 -6.057 0.000000 3.282474 0.000 0 0.000
34401.00 1450.65 100.138999 0.0000000000000000 0.000000 258.483157 -1171632.597859 30.509541 126.100171 -20.658426 1473.763729 -6.064 -6.064 0.000000 3.282219 0.000 0 0.000
34301.00 1450.42 100.138999 0.0000000000000000 0.000000 258.483157 -1171937.705149 30.511918 126.107687 -20.666665 1473.725652 -6.071 -6.071 0.000000 3.281963 0.000 0 0.000
34201.00 1450.18 100.138999 0.0000000000000000 0.000000 258.483157 -1172242.836240 30.514302 126.115211 -20.674922 1473.688185 -6.078 -6.078 0.000000 3.281707 0.000 0 0.000
34101.00 1449.95 100.138999 0.0000000000000000 0.000000 258.483157 -1172547.991204 30.516693 126.122744 -20.683198 1473.651339 -6.085 -6.085 0.000000 3.281450 0.000 0 0.000
34001.00 1449.71 100.138999 0.0000000000000000 0.000000 258.483157 -1172853.170116 30.519091 126.130285 -20.691494 1473.615123 -6.092 -6.092 0.000000 3.281192 0.000 0 0.000
33901.00 1449.47 100.138999 0.0000000000000000 0.000000 258.483157 -1173158.373050 30.521497 126.137834 -20.699809 1473.579547 -6.099 -6.099 0.000000 3.280933 0.000 0 0.000
33801.00 1449.24 100.138999 0.0000000000000000 0.000000 258.483157 -1173463.600081 30.523911 126.145393 -20.708144 1473.544622 -6.106 -6.106 0.000000 3.280674 0.000 0 0.000
33701.00 1449.00 100.138999 0.0000000000000000 0.000000 258.483157 -1173768.851288 30.526332 126.152960 -20.716499 1473.510358 -6.113 -6.113 0.000000 3.280414 0.000 0 0.000
33601.00 1448.76 100.138999 0.0000000000000000 0.000000 258.483157 -1174074.126749 30.528761 126.160537 -20.724874 1473.476766 -6.120 -6.120 0.000000 3.280153 0.000 0 0.000
33501.00 1448.53 100.138999 0.0000000000000000 0.000000 258.483157 -1174379.426542 30.531199 126.168123 -20.733271 1473.443855 -6.127 -6.127 0.000000 3.279891 0.000 0 0.000
33401.00 1448.29 100.138999 0.0000000000000000 0.000000 258.483157 -1174684.750749 30.533644 126.175719 -20.741688 1473.411639 -6.135 -6.135 0.000000 3.279628 0.000 0 0.000
33301.00 1448.05 100.138999 0.0000000000000000 0.000000 258.483157 -1174990.099450 30.536098 126.183325 -20.750126 1473.380127 -6.142 -6.142 0.000000 3.279365 0.000 0 0.000
33201.00 1447.81 100.138999 0.0000000000000000 0.000000 258.483157 -1175295.472730 30.538560 126.190940 -20.758587 1473.349332 -6.149 -6.149 0.000000 3.279100 0.000 0 0.000
33101.00 1447.58 100.138999 0.0000000000000000 0.000000 258.483157 -1175600.870671 30.541030 126.198566 -20.767069 1473.319265 -6.156 -6.156 0.000000 3.278835 0.000 0 0.000
33001.00 1447.34 100.138999 0.0000000000000000 0.000000 258.483157 -1175906.293360 30.543509 126.206203 -20.775574 1473.289938 -6.164 -6.164 0.000000 3.278569 0.000 0 0.000
32901.00 1447.10 100.138999 0.0000000000000000 0.000000 258.483157 -1176211.740884 30.545997 126.213850 -20.784101 1473.261365 -6.171 -6.171 0.000000 3.278302 0.000 0 0.000
32801.00 1446.86 100.138999 0.0000000000000000 0.000000 258.483157 -1176517.213329 30.548494 126.221508 -20.792651 1473.233557 -6.178 -6.178 0.000000 3.278034 0.000 0 0.000
