Title: Depleted MORB Mantle of Workmann & Hart 2005

Liquid Composition:
Pressure Temperature mass SiO2 TiO2 Al2O3 Fe2O3 Cr2O3 FeO MnO MgO NiO CaO Na2O 
44001.00 1472.66 0.000000 ---
43901.00 1472.44 0.000000 ---
43801.00 1472.21 0.000000 ---
43701.00 1471.98 0.000000 ---
43601.00 1471.76 0.000000 ---
43501.00 1471.53 0.000000 ---
43401.00 1471.31 0.000000 ---
43301.00 1471.08 0.000000 ---
43201.00 1470.86 0.000000 ---
43101.00 1470.63 0.000000 ---
43001.00 1470.40 0.000000 ---
42901.00 1470.18 0.000000 ---
42801.00 1469.95 0.000000 ---
42701.00 1469.72 0.000000 ---
42601.00 1469.50 0.000000 ---
42501.00 1469.27 0.000000 ---
42401.00 1469.05 0.000000 ---
42301.00 1468.82 0.000000 ---
42201.00 1468.59 0.000000 ---
42101.00 1468.37 0.000000 ---
42001.00 1468.14 0.000000 ---
41901.00 1467.91 0.000000 ---
41801.00 1467.69 0.000000 ---
41701.00 1467.46 0.000000 ---
41601.00 1467.23 0.000000 ---
41501.00 1467.01 0.000000 ---
41401.00 1466.78 0.000000 ---
41301.00 1466.55 0.000000 ---
41201.00 1466.33 0.000000 ---
41101.00 1466.10 0.000000 ---
41001.00 1465.87 0.000000 ---
40901.00 1465.64 0.000000 ---
40801.00 1465.42 0.000000 ---
40701.00 1465.19 0.000000 ---
40601.00 1464.96 0.000000 ---
40501.00 1464.73 0.000000 ---
40401.00 1464.51 0.000000 ---
40301.00 1464.28 0.000000 ---
40201.00 1464.05 0.000000 ---
40101.00 1463.82 0.000000 ---
40001.00 1463.59 0.000000 ---
39901.00 1463.37 0.000000 ---
39801.00 1463.14 0.000000 ---
39701.00 1462.91 0.000000 ---
39601.00 1462.68 0.000000 ---
39501.00 1462.45 0.000000 ---
39401.00 1462.23 0.000000 ---
39301.00 1462.00 0.000000 ---
39201.00 1461.77 0.000000 ---
39101.00 1461.54 0.000000 ---
39001.00 1461.31 0.000000 ---
38901.00 1461.08 0.000000 ---
38801.00 1460.85 0.000000 ---
38701.00 1460.62 0.000000 ---
38601.00 1460.39 0.000000 ---
38501.00 1460.16 0.000000 ---
38401.00 1459.94 0.000000 ---
38301.00 1459.71 0.000000 ---
38201.00 1459.48 0.000000 ---
38101.00 1459.25 0.000000 ---
38001.00 1459.02 0.000000 ---
37901.00 1458.79 0.000000 ---
37801.00 1458.56 0.000000 ---
37701.00 1458.33 0.000000 ---
37601.00 1458.10 0.000000 ---
37501.00 1457.87 0.000000 ---
37401.00 1457.63 0.000000 ---
37301.00 1457.40 0.000000 ---
37201.00 1457.17 0.000000 ---
37101.00 1456.94 0.000000 ---
37001.00 1456.71 0.000000 ---
36901.00 1456.48 0.000000 ---
36801.00 1456.25 0.000000 ---
36701.00 1456.02 0.000000 ---
36601.00 1455.79 0.000000 ---
36501.00 1455.55 0.000000 ---
36401.00 1455.32 0.000000 ---
36301.00 1455.09 0.000000 ---
36201.00 1454.86 0.000000 ---
36101.00 1454.63 0.000000 ---
36001.00 1454.39 0.000000 ---
35901.00 1454.16 0.000000 ---
35801.00 1453.93 0.000000 ---
35701.00 1453.69 0.000000 ---
35601.00 1453.46 0.000000 ---
35501.00 1453.23 0.000000 ---
35401.00 1453.00 0.000000 ---
35301.00 1452.76 0.000000 ---
35201.00 1452.53 0.000000 ---
35101.00 1452.29 0.000000 ---
35001.00 1452.06 0.000000 ---
34901.00 1451.83 0.000000 ---
34801.00 1451.59 0.000000 ---
34701.00 1451.36 0.000000 ---
34601.00 1451.12 0.000000 ---
34501.00 1450.89 0.000000 ---
34401.00 1450.65 0.000000 ---
34301.00 1450.42 0.000000 ---
34201.00 1450.18 0.000000 ---
34101.00 1449.95 0.000000 ---
34001.00 1449.71 0.000000 ---
33901.00 1449.47 0.000000 ---
33801.00 1449.24 0.000000 ---
33701.00 1449.00 0.000000 ---
33601.00 1448.76 0.000000 ---
33501.00 1448.53 0.000000 ---
33401.00 1448.29 0.000000 ---
33301.00 1448.05 0.000000 ---
33201.00 1447.81 0.000000 ---
33101.00 1447.58 0.000000 ---
33001.00 1447.34 0.000000 ---
32901.00 1447.10 0.000000 ---
32801.00 1446.86 0.000000 ---
32701.00 1446.62 0.000000 ---
32601.00 1446.38 0.000000 ---
32501.00 1446.14 0.000000 ---
32401.00 1445.91 0.000000 ---
32301.00 1445.67 0.000000 ---
32201.00 1445.43 0.000000 ---
32101.00 1445.19 0.000000 ---
32001.00 1444.94 0.000000 ---
31901.00 1444.70 0.000000 ---
31801.00 1444.46 0.000000 ---
31701.00 1444.22 0.000000 ---
31601.00 1443.98 0.000000 ---
31501.00 1443.74 0.000000 ---
31401.00 1443.49 0.000000 ---
31301.00 1443.25 0.000000 ---
31201.00 1443.01 0.000000 ---
31101.00 1442.77 0.000000 ---
31001.00 1442.52 0.000000 ---
30901.00 1442.28 0.000000 ---
30801.00 1442.03 0.000000 ---
30701.00 1441.79 0.000000 ---
30601.00 1441.54 0.000000 ---
30501.00 1441.30 0.000000 ---
30401.00 1441.05 0.000000 ---
30301.00 1440.81 0.000000 ---
30201.00 1440.56 0.000000 ---
30101.00 1440.31 0.000000 ---
30001.00 1440.07 0.000000 ---
29901.00 1439.82 0.000000 ---
29801.00 1439.57 0.000000 ---
29701.00 1439.32 0.000000 ---
29601.00 1439.07 0.000000 ---
29501.00 1438.82 0.000000 ---
29401.00 1438.57 0.000000 ---
29301.00 1438.32 0.000000 ---
29201.00 1438.07 0.000000 ---
29101.00 1437.82 0.000000 ---
29001.00 1437.57 0.000000 ---
28901.00 1437.32 0.000000 ---
28801.00 1437.06 0.000000 ---
28701.00 1436.81 0.000000 ---
28601.00 1436.56 0.000000 ---
28501.00 1436.30 0.000000 ---
28401.00 1436.05 0.000000 ---
28301.00 1435.79 0.000000 ---
28201.00 1435.54 0.000000 ---
28101.00 1435.28 0.000000 ---
28001.00 1435.02 0.000000 ---
27901.00 1434.77 0.000000 ---
27801.00 1434.51 0.000000 ---
27701.00 1434.25 0.000000 ---
27601.00 1433.99 0.000000 ---
27501.00 1433.73 0.000000 ---
27401.00 1433.47 0.000000 ---
27301.00 1433.21 0.000000 ---
27201.00 1432.95 0.000000 ---
27101.00 1432.68 0.000000 ---
27001.00 1432.42 0.000000 ---
26901.00 1432.16 0.000000 ---
26801.00 1431.89 0.000000 ---
26701.00 1431.63 0.000000 ---
26601.00 1431.36 0.000000 ---
26501.00 1431.09 0.000000 ---
26401.00 1430.82 0.000000 ---
26301.00 1430.56 0.000000 ---
26201.00 1430.29 0.000000 ---
26101.00 1430.02 0.000000 ---
26001.00 1429.74 0.000000 ---
25901.00 1429.47 0.000000 ---
25801.00 1429.20 0.000000 ---
25701.00 1428.92 0.000000 ---
25601.00 1428.65 0.000000 ---
25501.00 1428.37 0.000000 ---
25401.00 1428.09 0.000000 ---
25301.00 1427.82 0.000000 ---
25201.00 1427.54 0.000000 ---
25101.00 1427.26 0.000000 ---
25001.00 1426.97 0.000000 ---
24901.00 1426.69 0.000000 ---
24801.00 1426.41 0.000000 ---
24701.00 1426.12 0.000000 ---
24601.00 1425.83 0.000000 ---
24501.00 1425.55 0.000000 ---
24401.00 1425.26 0.000000 ---
24301.00 1424.97 0.000000 ---
24201.00 1424.67 0.000000 ---
24101.00 1424.38 0.000000 ---
24001.00 1424.08 0.000000 ---
23901.00 1423.79 0.000000 ---
23801.00 1423.49 0.000000 ---
23701.00 1423.19 0.000000 ---
23601.00 1422.88 0.000000 ---
23501.00 1422.58 0.000000 ---
23401.00 1422.27 0.000000 ---
23301.00 1421.97 0.000000 ---
23201.00 1421.66 0.000000 ---
23101.00 1421.34 0.000000 ---
23001.00 1421.03 0.000000 ---
22901.00 1420.71 0.000000 ---
22801.00 1420.40 0.000000 ---
22701.00 1420.07 0.000000 ---
22601.00 1419.75 0.000000 ---
22501.00 1419.43 0.000000 ---
22401.00 1419.10 0.000000 ---
22301.00 1418.77 0.000000 ---
22201.00 1418.43 0.000000 ---
22101.00 1418.09 0.000000 ---
22001.00 1417.75 0.000000 ---
21901.00 1417.41 0.000000 ---
21801.00 1417.06 0.000000 ---
21701.00 1416.71 0.000000 ---
21601.00 1416.36 0.000000 ---
21501.00 1416.12 0.000000 ---
21401.00 1415.90 0.000000 ---
21301.00 1415.69 0.000000 ---
21201.00 1415.47 0.000000 ---
21101.00 1415.25 0.000000 ---
21001.00 1415.03 0.000000 ---
20901.00 1414.81 0.000000 ---
20801.00 1414.59 0.000000 ---
20701.00 1414.38 0.000000 ---
20601.00 1414.10 0.012155 44.867 0.889194 14.5556 0.190964 0.265093 9.26686 0.0387829 15.2739 0.0234312 5.67108 8.95813
20501.00 1413.75 0.044772 44.9068 0.888599 14.5766 0.192591 0.262914 9.24768 0.0384401 15.2586 0.0232172 5.71219 8.89243
20401.00 1413.39 0.077855 44.9465 0.888003 14.5975 0.194243 0.260732 9.22857 0.0380983 15.2432 0.0230039 5.75369 8.82639
20301.00 1413.03 0.111418 44.9863 0.887405 14.6182 0.19592 0.258548 9.20954 0.0377576 15.228 0.0227914 5.79557 8.76001
20201.00 1412.67 0.145474 45.026 0.886805 14.6387 0.197624 0.256363 9.19058 0.037418 15.2127 0.0225797 5.83785 8.69331
20101.00 1412.30 0.180038 45.0657 0.886202 14.6591 0.199355 0.254176 9.17169 0.0370796 15.1975 0.0223687 5.88053 8.62628
20001.00 1411.94 0.215124 45.1054 0.885597 14.6793 0.201113 0.251989 9.15288 0.0367422 15.1823 0.0221585 5.92361 8.55893
19901.00 1411.57 0.250747 45.145 0.884989 14.6993 0.202898 0.249801 9.13414 0.036406 15.1671 0.0219491 5.96709 8.49126
19801.00 1411.21 0.286923 45.1846 0.884378 14.7191 0.204711 0.247612 9.11547 0.036071 15.152 0.0217405 6.01097 8.42328
19701.00 1410.84 0.323668 45.2242 0.883764 14.7388 0.206552 0.245425 9.09687 0.0357371 15.1369 0.0215326 6.05526 8.35498
19601.00 1410.46 0.360998 45.2637 0.883146 14.7582 0.208422 0.243238 9.07834 0.0354044 15.1219 0.0213256 6.09996 8.28639
19501.00 1410.09 0.398930 45.3031 0.882523 14.7775 0.210321 0.241052 9.05987 0.0350729 15.1068 0.0211194 6.14507 8.2175
19401.00 1409.71 0.437483 45.3425 0.881897 14.7966 0.21225 0.238867 9.04147 0.0347426 15.0918 0.020914 6.19059 8.14831
19301.00 1409.34 0.476675 45.3819 0.881265 14.8156 0.214208 0.236684 9.02314 0.0344135 15.0768 0.0207094 6.23653 8.07884
19201.00 1408.96 0.516524 45.4212 0.880628 14.8343 0.216197 0.234504 9.00486 0.0340856 15.0618 0.0205056 6.28289 8.00908
19101.00 1408.58 0.557050 45.4604 0.879985 14.8529 0.218217 0.232326 8.98665 0.033759 15.0468 0.0203027 6.32966 7.93905
19001.00 1408.19 0.598274 45.4996 0.879336 14.8713 0.220268 0.230152 8.96849 0.0334336 15.0318 0.0201006 6.37685 7.86875
18901.00 1407.81 0.640216 45.5387 0.87868 14.8895 0.22235 0.227981 8.95039 0.0331094 15.0168 0.0198994 6.42447 7.79818
18801.00 1407.42 0.682898 45.5777 0.878017 14.9075 0.224465 0.225813 8.93235 0.0327866 15.0018 0.019699 6.47251 7.72736
18701.00 1407.03 0.726343 45.6167 0.877345 14.9253 0.226611 0.223651 8.91435 0.032465 14.9868 0.0194995 6.52097 7.65629
18601.00 1406.63 0.770572 45.6556 0.876666 14.9429 0.228791 0.221493 8.8964 0.0321447 14.9719 0.0193008 6.56986 7.58498
18501.00 1406.24 0.815611 45.6944 0.875977 14.9604 0.231003 0.219341 8.8785 0.0318258 14.9569 0.0191031 6.61917 7.51344
18401.00 1405.84 0.861484 45.7332 0.875279 14.9777 0.233249 0.217194 8.86064 0.0315081 14.9418 0.0189062 6.66891 7.44166
18301.00 1405.44 0.908217 45.7718 0.87457 14.9947 0.235528 0.215054 8.84282 0.0311918 14.9268 0.0187102 6.71907 7.36967
18201.00 1405.03 0.955834 45.8105 0.87385 15.0116 0.237841 0.21292 8.82503 0.0308768 14.9117 0.0185151 6.76966 7.29748
18101.00 1404.63 1.004365 45.849 0.873118 15.0284 0.240189 0.210794 8.80728 0.0305632 14.8966 0.0183209 6.82067 7.22508
18001.00 1404.22 1.050802 45.8875 0.872374 15.0449 0.242572 0.208674 8.78956 0.030251 14.8815 0.0181276 6.87212 7.15248
17901.00 1403.81 1.050782 45.9257 0.871631 15.0612 0.244995 0.206553 8.77198 0.02994 14.8664 0.0179352 6.92409 7.07951
17801.00 1403.39 1.050767 45.9638 0.87089 15.0773 0.247461 0.20443 8.75453 0.0296304 14.8515 0.0177437 6.9766 7.00618
17701.00 1402.98 1.050758 46.0016 0.87015 15.0932 0.249969 0.202306 8.73722 0.0293221 14.8365 0.0175531 7.02965 6.93248
17601.00 1402.56 1.050755 46.0392 0.869411 15.1089 0.252521 0.200182 8.72004 0.0290152 14.8217 0.0173634 7.08323 6.85844
17501.00 1402.15 1.050758 46.0766 0.868672 15.1244 0.255116 0.198057 8.703 0.0287096 14.8069 0.0171746 7.13737 6.78403
17401.00 1401.73 1.050767 46.1138 0.867935 15.1396 0.257757 0.195932 8.6861 0.0284054 14.7922 0.0169868 7.19206 6.70928
17301.00 1401.31 1.050783 46.1507 0.867197 15.1546 0.260443 0.193807 8.66933 0.0281026 14.7775 0.0167999 7.24731 6.63419
17201.00 1400.89 1.050806 46.1874 0.86646 15.1695 0.263176 0.191683 8.6527 0.0278012 14.7629 0.0166139 7.30312 6.55875
17101.00 1400.46 1.050835 46.2238 0.865723 15.1841 0.265956 0.18956 8.63621 0.0275011 14.7483 0.0164288 7.35949 6.48298
17001.00 1400.04 1.050873 46.2599 0.864985 15.1984 0.268785 0.187439 8.61984 0.0272025 14.7338 0.0162447 7.41644 6.40688
16901.00 1399.61 1.050918 46.2958 0.864246 15.2126 0.271662 0.185319 8.60362 0.0269052 14.7194 0.0160616 7.47396 6.33045
16801.00 1399.18 1.050971 46.3315 0.863506 15.2265 0.274588 0.183202 8.58752 0.0266094 14.7049 0.0158794 7.53206 6.2537
16701.00 1398.75 1.051032 46.3668 0.862765 15.2402 0.277565 0.181087 8.57156 0.0263151 14.6906 0.0156981 7.59074 6.17664
16601.00 1398.31 1.051103 46.4019 0.862022 15.2537 0.280594 0.178975 8.55572 0.0260221 14.6762 0.0155179 7.65001 6.09927
16501.00 1397.88 1.051182 46.4367 0.861276 15.267 0.283674 0.176867 8.54002 0.0257307 14.6619 0.0153386 7.70987 6.0216
16401.00 1397.44 1.051270 46.4712 0.860527 15.28 0.286807 0.174762 8.52445 0.0254406 14.6477 0.0151602 7.77032 5.94364
16301.00 1397.00 1.051369 46.5055 0.859775 15.2928 0.289993 0.172662 8.509 0.0251521 14.6334 0.0149829 7.83136 5.86538
16201.00 1396.56 1.051477 46.5394 0.859019 15.3054 0.293234 0.170567 8.49367 0.024865 14.6192 0.0148065 7.89301 5.78685
16101.00 1396.11 1.051596 46.573 0.858258 15.3178 0.296529 0.168476 8.47847 0.0245795 14.605 0.0146311 7.95526 5.70804
16001.00 1395.67 1.051726 46.6064 0.857492 15.3299 0.29988 0.166391 8.46339 0.0242954 14.5907 0.0144567 8.01811 5.62897
15901.00 1395.22 1.051868 46.6394 0.85672 15.3418 0.303287 0.164312 8.44842 0.0240128 14.5765 0.0142833 8.08157 5.54964
15801.00 1394.77 1.052021 46.6721 0.855941 15.3535 0.306751 0.162239 8.43357 0.0237318 14.5623 0.014111 8.14564 5.47007
15701.00 1394.31 1.052187 46.7045 0.855155 15.365 0.310272 0.160174 8.41883 0.0234523 14.5481 0.0139396 8.21031 5.39025
15601.00 1393.85 1.052365 46.7366 0.854359 15.3762 0.313851 0.158115 8.4042 0.0231743 14.5339 0.0137692 8.2756 5.31021
15501.00 1393.39 1.052557 46.7684 0.853555 15.3872 0.317489 0.156064 8.38967 0.0228978 14.5196 0.0135999 8.3415 5.22994
15401.00 1392.93 1.052763 46.7999 0.852739 15.398 0.321186 0.154022 8.37525 0.022623 14.5054 0.0134315 8.40802 5.14947
15301.00 1392.47 1.052984 46.8311 0.851912 15.4086 0.324943 0.151988 8.36092 0.0223496 14.491 0.0132642 8.47514 5.0688
15201.00 1392.00 1.053220 46.8619 0.851073 15.4189 0.328759 0.149963 8.34668 0.0220779 14.4767 0.013098 8.54288 4.98794
15101.00 1391.53 1.053471 46.8925 0.850219 15.429 0.332636 0.147948 8.33253 0.0218078 14.4623 0.0129327 8.61123 4.90691
15001.00 1391.06 1.053739 46.9227 0.84935 15.4389 0.336573 0.145943 8.31847 0.0215392 14.4478 0.0127686 8.68019 4.82572
14901.00 1390.58 1.054024 46.9527 0.848465 15.4486 0.340571 0.143948 8.30448 0.0212723 14.4333 0.0126054 8.74976 4.74437
14801.00 1390.10 1.054326 46.9823 0.847561 15.4581 0.344631 0.141965 8.29056 0.021007 14.4186 0.0124433 8.81993 4.66289
14701.00 1389.61 1.054648 47.0117 0.846638 15.4673 0.348751 0.139993 8.27671 0.0207433 14.4039 0.0122823 8.89071 4.58129
14601.00 1389.13 1.054988 47.0407 0.845693 15.4763 0.352932 0.138033 8.26291 0.0204812 14.3891 0.0121224 8.96209 4.49957
14501.00 1388.64 1.055349 47.0695 0.844726 15.4852 0.357175 0.136085 8.24917 0.0202208 14.3742 0.0119635 9.03407 4.41776
14401.00 1388.14 1.055730 47.0979 0.843733 15.4938 0.361478 0.134151 8.23547 0.0199621 14.3592 0.0118057 9.10664 4.33587
14301.00 1387.65 1.056134 47.1261 0.842713 15.5022 0.365842 0.13223 8.22181 0.019705 14.344 0.0116489 9.17979 4.25392
14201.00 1387.14 1.056560 47.1541 0.841665 15.5104 0.370266 0.130323 8.20818 0.0194496 14.3287 0.0114933 9.25353 4.17193
14101.00 1386.64 1.057010 47.1818 0.840585 15.5184 0.37475 0.128431 8.19456 0.0191959 14.3133 0.0113388 9.32784 4.0899
14001.00 1386.13 1.057484 47.2092 0.839472 15.5261 0.379294 0.126554 8.18096 0.018944 14.2977 0.0111853 9.40271 4.00786
13901.00 1385.61 1.057985 47.2364 0.838324 15.5337 0.383895 0.124693 8.16735 0.0186937 14.2819 0.011033 9.47815 3.92583
13801.00 1385.10 1.058512 47.2634 0.837136 15.5411 0.388555 0.122848 8.15374 0.0184452 14.2659 0.0108818 9.55413 3.84382
13701.00 1384.57 1.059067 47.2901 0.835908 15.5484 0.393271 0.121019 8.14011 0.0181984 14.2498 0.0107317 9.63066 3.76186
13601.00 1384.05 1.059652 47.3167 0.834636 15.5554 0.398042 0.119208 8.12644 0.0179534 14.2334 0.0105827 9.70771 3.67996
13501.00 1383.51 1.060266 47.3431 0.833316 15.5622 0.402868 0.117415 8.11274 0.0177102 14.2168 0.0104348 9.78528 3.59815
13401.00 1382.98 1.060913 47.3694 0.831947 15.5689 0.407747 0.11564 8.09897 0.0174687 14.1999 0.0102881 9.86336 3.51645
13301.00 1382.44 1.061593 47.3955 0.830524 15.5754 0.412676 0.113884 8.08514 0.0172291 14.1828 0.0101426 9.94192 3.43487
13201.00 1381.89 1.062307 47.4214 0.829045 15.5817 0.417655 0.112147 8.07123 0.0169913 14.1654 0.00999819 10.021 3.35345
13101.00 1381.34 1.063057 47.4473 0.827505 15.5878 0.42268 0.110431 8.05722 0.0167553 14.1477 0.00985496 10.1005 3.27221
13001.00 1380.78 1.063845 47.4731 0.8259 15.5938 0.427751 0.108735 8.0431 0.0165211 14.1298 0.0097129 10.1804 3.19116
12901.00 1380.21 1.064672 47.4989 0.824228 15.5997 0.432864 0.10706 8.02885 0.0162888 14.1115 0.00957202 10.2608 3.11035
12801.00 1379.64 1.065540 47.5246 0.822483 15.6053 0.438017 0.105407 8.01446 0.0160584 14.0929 0.00943232 10.3415 3.02978
12701.00 1379.07 1.066451 47.5504 0.820661 15.6109 0.443207 0.103776 7.99991 0.0158299 14.0739 0.00929382 10.4227 2.9495
12601.00 1378.48 1.067406 47.5761 0.818758 15.6163 0.44843 0.102168 7.98518 0.0156033 14.0546 0.00915653 10.5042 2.86952
12501.00 1377.90 1.068407 47.602 0.816768 15.6215 0.453684 0.100583 7.97026 0.0153787 14.0348 0.00902045 10.5861 2.78987
12401.00 1377.30 1.069457 47.628 0.814687 15.6267 0.458964 0.0990228 7.95513 0.0151559 14.0147 0.0088856 10.6682 2.71059
12301.00 1376.70 1.070557 47.6541 0.81251 15.6317 0.464267 0.097487 7.93976 0.0149352 13.9942 0.00875198 10.7507 2.6317
12201.00 1376.09 1.071709 47.6803 0.810231 15.6365 0.469589 0.0959765 7.92413 0.0147164 13.9732 0.0086196 10.8334 2.55324
12101.00 1375.47 1.072916 47.7068 0.807845 15.6413 0.474924 0.0944918 7.90823 0.0144997 13.9518 0.00848847 10.9163 2.47524
12001.00 1374.84 1.074180 47.7336 0.805345 15.646 0.480268 0.0930336 7.89204 0.014285 13.9299 0.00835861 10.9994 2.39772
11901.00 1374.21 1.075504 47.7607 0.802726 15.6505 0.485616 0.0916025 7.87552 0.0140723 13.9076 0.00823003 11.0827 2.32073
11801.00 1373.56 1.076889 47.7881 0.799981 15.655 0.490963 0.0901992 7.85866 0.0138617 13.8847 0.00810272 11.1661 2.24429
11701.00 1372.91 1.078338 47.816 0.797104 15.6594 0.496303 0.0888242 7.84143 0.0136532 13.8613 0.00797672 11.2496 2.16845
11601.00 1372.25 1.079854 47.8443 0.794087 15.6637 0.50163 0.0874782 7.82381 0.0134468 13.8374 0.00785202 11.3331 2.09324
11501.00 1371.58 1.081439 47.8731 0.790924 15.6679 0.506937 0.0861619 7.80577 0.0132425 13.8129 0.00772865 11.4166 2.0187
11401.00 1370.90 1.083096 47.9025 0.787608 15.672 0.512218 0.084876 7.78728 0.0130404 13.7878 0.00760661 11.5001 1.94486
11301.00 1370.21 1.084828 47.9326 0.784131 15.6761 0.517466 0.0836211 7.76832 0.0128405 13.7622 0.00748591 11.5835 1.87176
11201.00 1369.51 1.086637 47.9633 0.780485 15.6801 0.522673 0.0823979 7.74886 0.0126428 13.7359 0.00736657 11.6668 1.79945
11101.00 1368.80 1.088526 47.9948 0.776663 15.6841 0.527833 0.0812072 7.72887 0.0124473 13.709 0.00724861 11.7499 1.72797
11001.00 1368.08 1.090497 48.0272 0.772656 15.688 0.532936 0.0800497 7.70832 0.0122541 13.6814 0.00713203 11.8327 1.65736
10901.00 1367.34 1.092553 48.0605 0.768456 15.6918 0.537975 0.0789261 7.68718 0.0120632 13.6532 0.00701686 11.9152 1.58766
10801.00 1366.60 1.094696 48.0948 0.764055 15.6956 0.542941 0.0778372 7.66542 0.0118746 13.6243 0.0069031 11.9974 1.51892
10701.00 1365.84 1.096930 48.1301 0.759443 15.6993 0.547826 0.0767838 7.643 0.0116884 13.5947 0.00679078 12.0792 1.45118
10601.00 1365.06 1.099254 48.1666 0.754613 15.703 0.55262 0.0757668 7.6199 0.0115046 13.5643 0.0066799 12.1604 1.3845
10501.00 1364.28 1.101673 48.2044 0.749556 15.7067 0.557315 0.074787 7.59607 0.0113231 13.5333 0.00657049 12.2411 1.31891
10401.00 1363.48 1.104186 48.2434 0.744263 15.7103 0.5619 0.0738452 7.5715 0.0111442 13.5015 0.00646257 12.3212 1.25448
