Title: Depleted MORB Mantle of Workmann & Hart 2005

System Thermodynamic Data:
Pressure Temperature mass F phi S H V Cp dVdP*10^6 dVdT*10^6 fO2(absolute) fO2(absolute) rhol rhos viscosity aH2O chisqr
44001.00 1219.73 100.138999 0.0000000000000000 0.000000 238.646550 -1174510.511059 29.910505 123.413064 -19.848574 1361.186418 -7.252 -7.252 0.000000 3.347954 0.000 0 0.000
43901.00 1219.55 100.138999 0.0000000000000000 0.000000 238.646550 -1174809.625658 29.912415 123.418745 -19.855452 1361.123922 -7.257 -7.257 0.000000 3.347740 0.000 0 0.000
43801.00 1219.38 100.138999 0.0000000000000000 0.000000 238.646550 -1175108.759366 29.914327 123.424425 -19.862334 1361.061537 -7.261 -7.261 0.000000 3.347526 0.000 0 0.000
43701.00 1219.20 100.138999 0.0000000000000000 0.000000 238.646550 -1175407.912200 29.916240 123.430105 -19.869220 1360.999265 -7.266 -7.266 0.000000 3.347312 0.000 0 0.000
43601.00 1219.03 100.138999 0.0000000000000000 0.000000 238.646550 -1175707.084178 29.918156 123.435785 -19.876109 1360.937107 -7.270 -7.270 0.000000 3.347098 0.000 0 0.000
43501.00 1218.85 100.138999 0.0000000000000000 0.000000 238.646550 -1176006.275318 29.920073 123.441464 -19.883002 1360.875062 -7.275 -7.275 0.000000 3.346884 0.000 0 0.000
43401.00 1218.67 100.138999 0.0000000000000000 0.000000 238.646550 -1176305.485639 29.921992 123.447143 -19.889899 1360.813133 -7.280 -7.280 0.000000 3.346669 0.000 0 0.000
43301.00 1218.50 100.138999 0.0000000000000000 0.000000 238.646550 -1176604.715159 29.923912 123.452822 -19.896799 1360.751319 -7.284 -7.284 0.000000 3.346454 0.000 0 0.000
43201.00 1218.32 100.138999 0.0000000000000000 0.000000 238.646550 -1176903.963895 29.925835 123.458501 -19.903704 1360.689622 -7.289 -7.289 0.000000 3.346239 0.000 0 0.000
43101.00 1218.15 100.138999 0.0000000000000000 0.000000 238.646550 -1177203.231867 29.927760 123.464179 -19.910612 1360.628044 -7.293 -7.293 0.000000 3.346024 0.000 0 0.000
43001.00 1217.97 100.138999 0.0000000000000000 0.000000 238.646550 -1177502.519093 29.929686 123.469857 -19.917524 1360.566584 -7.298 -7.298 0.000000 3.345809 0.000 0 0.000
42901.00 1217.80 100.138999 0.0000000000000000 0.000000 238.646550 -1177801.825591 29.931614 123.475535 -19.924440 1360.505243 -7.303 -7.303 0.000000 3.345593 0.000 0 0.000
42801.00 1217.62 100.138999 0.0000000000000000 0.000000 238.646550 -1178101.151381 29.933544 123.481212 -19.931360 1360.444023 -7.308 -7.308 0.000000 3.345377 0.000 0 0.000
42701.00 1217.45 100.138999 0.0000000000000000 0.000000 238.646550 -1178400.496480 29.935476 123.486889 -19.938284 1360.382925 -7.312 -7.312 0.000000 3.345161 0.000 0 0.000
42601.00 1217.27 100.138999 0.0000000000000000 0.000000 238.646550 -1178699.860909 29.937410 123.492567 -19.945213 1360.321949 -7.317 -7.317 0.000000 3.344945 0.000 0 0.000
42501.00 1217.10 100.138999 0.0000000000000000 0.000000 238.646550 -1178999.244686 29.939346 123.498244 -19.952145 1360.261097 -7.322 -7.322 0.000000 3.344729 0.000 0 0.000
42401.00 1216.92 100.138999 0.0000000000000000 0.000000 238.646550 -1179298.647830 29.941283 123.503920 -19.959081 1360.200369 -7.326 -7.326 0.000000 3.344513 0.000 0 0.000
42301.00 1216.75 100.138999 0.0000000000000000 0.000000 238.646550 -1179598.070360 29.943223 123.509597 -19.966022 1360.139766 -7.331 -7.331 0.000000 3.344296 0.000 0 0.000
42201.00 1216.57 100.138999 0.0000000000000000 0.000000 238.646550 -1179897.512296 29.945165 123.515274 -19.972966 1360.079291 -7.336 -7.336 0.000000 3.344079 0.000 0 0.000
42101.00 1216.39 100.138999 0.0000000000000000 0.000000 238.646550 -1180196.973658 29.947108 123.520950 -19.979915 1360.018942 -7.341 -7.341 0.000000 3.343862 0.000 0 0.000
42001.00 1216.22 100.138999 0.0000000000000000 0.000000 238.646550 -1180496.454465 29.949054 123.526626 -19.986869 1359.958723 -7.345 -7.345 0.000000 3.343645 0.000 0 0.000
41901.00 1216.04 100.138999 0.0000000000000000 0.000000 238.646550 -1180795.954736 29.951001 123.532303 -19.993826 1359.898633 -7.350 -7.350 0.000000 3.343427 0.000 0 0.000
41801.00 1215.87 100.138999 0.0000000000000000 0.000000 238.646550 -1181095.474493 29.952951 123.537979 -20.000788 1359.838673 -7.355 -7.355 0.000000 3.343210 0.000 0 0.000
41701.00 1215.69 100.138999 0.0000000000000000 0.000000 238.646550 -1181395.013753 29.954902 123.543655 -20.007754 1359.778846 -7.360 -7.360 0.000000 3.342992 0.000 0 0.000
41601.00 1215.52 100.138999 0.0000000000000000 0.000000 238.646550 -1181694.572539 29.956855 123.549331 -20.014725 1359.719151 -7.365 -7.365 0.000000 3.342774 0.000 0 0.000
41501.00 1215.34 100.138999 0.0000000000000000 0.000000 238.646550 -1181994.150870 29.958811 123.555007 -20.021700 1359.659591 -7.369 -7.369 0.000000 3.342556 0.000 0 0.000
41401.00 1215.17 100.138999 0.0000000000000000 0.000000 238.646550 -1182293.748766 29.960769 123.560683 -20.028680 1359.600166 -7.374 -7.374 0.000000 3.342337 0.000 0 0.000
41301.00 1214.99 100.138999 0.0000000000000000 0.000000 238.646550 -1182593.366247 29.962728 123.566359 -20.035664 1359.540877 -7.379 -7.379 0.000000 3.342119 0.000 0 0.000
41201.00 1214.81 100.138999 0.0000000000000000 0.000000 238.646550 -1182893.003336 29.964690 123.572035 -20.042653 1359.481725 -7.384 -7.384 0.000000 3.341900 0.000 0 0.000
41101.00 1214.64 100.138999 0.0000000000000000 0.000000 238.646550 -1183192.660051 29.966654 123.577711 -20.049646 1359.422712 -7.389 -7.389 0.000000 3.341681 0.000 0 0.000
41001.00 1214.46 100.138999 0.0000000000000000 0.000000 238.646550 -1183492.336414 29.968619 123.583387 -20.056644 1359.363839 -7.394 -7.394 0.000000 3.341462 0.000 0 0.000
40901.00 1214.29 100.138999 0.0000000000000000 0.000000 238.646550 -1183792.032447 29.970587 123.589063 -20.063647 1359.305108 -7.399 -7.399 0.000000 3.341242 0.000 0 0.000
40801.00 1214.11 100.138999 0.0000000000000000 0.000000 238.646550 -1184091.748170 29.972557 123.594740 -20.070655 1359.246518 -7.404 -7.404 0.000000 3.341023 0.000 0 0.000
40701.00 1213.94 100.138999 0.0000000000000000 0.000000 238.646550 -1184391.483604 29.974530 123.600416 -20.077667 1359.188072 -7.409 -7.409 0.000000 3.340803 0.000 0 0.000
40601.00 1213.76 100.138999 0.0000000000000000 0.000000 238.646550 -1184691.238771 29.976504 123.606092 -20.084684 1359.129770 -7.414 -7.414 0.000000 3.340583 0.000 0 0.000
40501.00 1213.58 100.138999 0.0000000000000000 0.000000 238.646550 -1184991.013693 29.978481 123.611769 -20.091707 1359.071615 -7.419 -7.419 0.000000 3.340363 0.000 0 0.000
40401.00 1213.41 100.138999 0.0000000000000000 0.000000 238.646550 -1185290.808391 29.980459 123.617446 -20.098734 1359.013607 -7.424 -7.424 0.000000 3.340142 0.000 0 0.000
40301.00 1213.23 100.138999 0.0000000000000000 0.000000 238.646550 -1185590.622887 29.982440 123.623123 -20.105766 1358.955748 -7.429 -7.429 0.000000 3.339922 0.000 0 0.000
40201.00 1213.06 100.138999 0.0000000000000000 0.000000 238.646550 -1185890.457203 29.984423 123.628800 -20.112803 1358.898038 -7.434 -7.434 0.000000 3.339701 0.000 0 0.000
40101.00 1212.88 100.138999 0.0000000000000000 0.000000 238.646550 -1186190.311361 29.986409 123.634477 -20.119845 1358.840480 -7.439 -7.439 0.000000 3.339480 0.000 0 0.000
40001.00 1212.70 100.138999 0.0000000000000000 0.000000 238.646550 -1186490.185384 29.988396 123.640155 -20.126893 1358.783075 -7.444 -7.444 0.000000 3.339258 0.000 0 0.000
39901.00 1212.53 100.138999 0.0000000000000000 0.000000 238.646550 -1186790.079294 29.990386 123.645833 -20.133945 1358.725824 -7.449 -7.449 0.000000 3.339037 0.000 0 0.000
39801.00 1212.35 100.138999 0.0000000000000000 0.000000 238.646550 -1187089.993113 29.992378 123.651511 -20.141003 1358.668728 -7.454 -7.454 0.000000 3.338815 0.000 0 0.000
39701.00 1212.18 100.138999 0.0000000000000000 0.000000 238.646550 -1187389.926865 29.994373 123.657190 -20.148066 1358.611789 -7.459 -7.459 0.000000 3.338593 0.000 0 0.000
39601.00 1212.00 100.138999 0.0000000000000000 0.000000 238.646550 -1187689.880573 29.996369 123.662868 -20.155134 1358.555008 -7.464 -7.464 0.000000 3.338371 0.000 0 0.000
39501.00 1211.82 100.138999 0.0000000000000000 0.000000 238.646550 -1187989.854258 29.998368 123.668548 -20.162208 1358.498387 -7.469 -7.469 0.000000 3.338148 0.000 0 0.000
39401.00 1211.65 100.138999 0.0000000000000000 0.000000 238.646550 -1188289.847946 30.000370 123.674227 -20.169288 1358.441928 -7.474 -7.474 0.000000 3.337926 0.000 0 0.000
39301.00 1211.47 100.138999 0.0000000000000000 0.000000 238.646550 -1188589.861658 30.002373 123.679907 -20.176372 1358.385631 -7.479 -7.479 0.000000 3.337703 0.000 0 0.000
39201.00 1211.30 100.138999 0.0000000000000000 0.000000 238.646550 -1188889.895419 30.004379 123.685587 -20.183463 1358.329498 -7.484 -7.484 0.000000 3.337479 0.000 0 0.000
39101.00 1211.12 100.138999 0.0000000000000000 0.000000 238.646550 -1189189.949253 30.006388 123.691268 -20.190559 1358.273532 -7.490 -7.490 0.000000 3.337256 0.000 0 0.000
39001.00 1210.94 100.138999 0.0000000000000000 0.000000 238.646550 -1189490.023183 30.008399 123.696949 -20.197660 1358.217732 -7.495 -7.495 0.000000 3.337032 0.000 0 0.000
38901.00 1210.77 100.138999 0.0000000000000000 0.000000 238.646550 -1189790.117233 30.010412 123.702631 -20.204767 1358.162102 -7.500 -7.500 0.000000 3.336809 0.000 0 0.000
38801.00 1210.59 100.138999 0.0000000000000000 0.000000 238.646550 -1190090.231429 30.012428 123.708313 -20.211880 1358.106643 -7.505 -7.505 0.000000 3.336584 0.000 0 0.000
38701.00 1210.41 100.138999 0.0000000000000000 0.000000 238.646550 -1190390.365793 30.014446 123.713995 -20.218999 1358.051355 -7.510 -7.510 0.000000 3.336360 0.000 0 0.000
38601.00 1210.24 100.138999 0.0000000000000000 0.000000 238.646550 -1190690.520352 30.016466 123.719678 -20.226124 1357.996242 -7.516 -7.516 0.000000 3.336135 0.000 0 0.000
38501.00 1210.06 100.138999 0.0000000000000000 0.000000 238.646550 -1190990.695130 30.018490 123.725362 -20.233255 1357.941304 -7.521 -7.521 0.000000 3.335911 0.000 0 0.000
38401.00 1209.89 100.138999 0.0000000000000000 0.000000 238.646550 -1191290.890151 30.020515 123.731047 -20.240392 1357.886544 -7.526 -7.526 0.000000 3.335686 0.000 0 0.000
38301.00 1209.71 100.138999 0.0000000000000000 0.000000 238.646550 -1191591.105442 30.022543 123.736731 -20.247535 1357.831962 -7.531 -7.531 0.000000 3.335460 0.000 0 0.000
38201.00 1209.53 100.138999 0.0000000000000000 0.000000 238.646550 -1191891.341027 30.024574 123.742417 -20.254684 1357.777562 -7.537 -7.537 0.000000 3.335235 0.000 0 0.000
38101.00 1209.36 100.138999 0.0000000000000000 0.000000 238.646550 -1192191.596932 30.026607 123.748103 -20.261839 1357.723344 -7.542 -7.542 0.000000 3.335009 0.000 0 0.000
38001.00 1209.18 100.138999 0.0000000000000000 0.000000 238.646550 -1192491.873183 30.028643 123.753790 -20.269000 1357.669310 -7.547 -7.547 0.000000 3.334783 0.000 0 0.000
37901.00 1209.00 100.138999 0.0000000000000000 0.000000 238.646550 -1192792.169807 30.030682 123.759478 -20.276168 1357.615463 -7.553 -7.553 0.000000 3.334556 0.000 0 0.000
37801.00 1208.83 100.138999 0.0000000000000000 0.000000 238.646550 -1193092.486828 30.032723 123.765167 -20.283342 1357.561804 -7.558 -7.558 0.000000 3.334330 0.000 0 0.000
37701.00 1208.65 100.138999 0.0000000000000000 0.000000 238.646550 -1193392.824275 30.034767 123.770856 -20.290523 1357.508335 -7.563 -7.563 0.000000 3.334103 0.000 0 0.000
37601.00 1208.47 100.138999 0.0000000000000000 0.000000 238.646550 -1193693.182172 30.036813 123.776546 -20.297710 1357.455058 -7.569 -7.569 0.000000 3.333876 0.000 0 0.000
37501.00 1208.30 100.138999 0.0000000000000000 0.000000 238.646550 -1193993.560549 30.038862 123.782237 -20.304904 1357.401975 -7.574 -7.574 0.000000 3.333648 0.000 0 0.000
37401.00 1208.12 100.138999 0.0000000000000000 0.000000 238.646550 -1194293.959430 30.040914 123.787929 -20.312104 1357.349088 -7.580 -7.580 0.000000 3.333420 0.000 0 0.000
37301.00 1207.94 100.138999 0.0000000000000000 0.000000 238.646550 -1194594.378844 30.042969 123.793621 -20.319311 1357.296399 -7.585 -7.585 0.000000 3.333193 0.000 0 0.000
37201.00 1207.76 100.138999 0.0000000000000000 0.000000 238.646550 -1194894.818819 30.045026 123.799315 -20.326525 1357.243910 -7.590 -7.590 0.000000 3.332964 0.000 0 0.000
37101.00 1207.59 100.138999 0.0000000000000000 0.000000 238.646550 -1195195.279382 30.047087 123.805009 -20.333746 1357.191623 -7.596 -7.596 0.000000 3.332736 0.000 0 0.000
37001.00 1207.41 100.138999 0.0000000000000000 0.000000 238.646550 -1195495.760561 30.049150 123.810705 -20.340974 1357.139540 -7.601 -7.601 0.000000 3.332507 0.000 0 0.000
36901.00 1207.23 100.138999 0.0000000000000000 0.000000 238.646550 -1195796.262384 30.051215 123.816402 -20.348209 1357.087664 -7.607 -7.607 0.000000 3.332278 0.000 0 0.000
36801.00 1207.06 100.138999 0.0000000000000000 0.000000 238.646550 -1196096.784880 30.053284 123.822099 -20.355450 1357.035997 -7.612 -7.612 0.000000 3.332048 0.000 0 0.000
36701.00 1206.88 100.138999 0.0000000000000000 0.000000 238.646550 -1196397.328078 30.055356 123.827798 -20.362700 1356.984540 -7.618 -7.618 0.000000 3.331819 0.000 0 0.000
36601.00 1206.70 100.138999 0.0000000000000000 0.000000 238.646550 -1196697.892007 30.057430 123.833498 -20.369956 1356.933297 -7.623 -7.623 0.000000 3.331589 0.000 0 0.000
36501.00 1206.53 100.138999 0.0000000000000000 0.000000 238.646550 -1196998.476695 30.059508 123.839199 -20.377220 1356.882269 -7.629 -7.629 0.000000 3.331359 0.000 0 0.000
36401.00 1206.35 100.138999 0.0000000000000000 0.000000 238.646550 -1197299.082173 30.061588 123.844901 -20.384491 1356.831458 -7.635 -7.635 0.000000 3.331128 0.000 0 0.000
36301.00 1206.17 100.138999 0.0000000000000000 0.000000 238.646550 -1197599.708471 30.063672 123.850605 -20.391769 1356.780868 -7.640 -7.640 0.000000 3.330897 0.000 0 0.000
36201.00 1205.99 100.138999 0.0000000000000000 0.000000 238.646550 -1197900.355617 30.065758 123.856310 -20.399055 1356.730501 -7.646 -7.646 0.000000 3.330666 0.000 0 0.000
36101.00 1205.82 100.138999 0.0000000000000000 0.000000 238.646550 -1198201.023644 30.067848 123.862016 -20.406349 1356.680358 -7.651 -7.651 0.000000 3.330435 0.000 0 0.000
36001.00 1205.64 100.138999 0.0000000000000000 0.000000 238.646550 -1198501.712580 30.069940 123.867723 -20.413651 1356.630444 -7.657 -7.657 0.000000 3.330203 0.000 0 0.000
35901.00 1205.46 100.138999 0.0000000000000000 0.000000 238.646550 -1198802.422458 30.072036 123.873432 -20.420960 1356.580759 -7.663 -7.663 0.000000 3.329971 0.000 0 0.000
35801.00 1205.28 100.138999 0.0000000000000000 0.000000 238.646550 -1199103.153308 30.074135 123.879143 -20.428278 1356.531307 -7.668 -7.668 0.000000 3.329738 0.000 0 0.000
35701.00 1205.11 100.138999 0.0000000000000000 0.000000 238.646550 -1199403.905162 30.076237 123.884854 -20.435603 1356.482090 -7.674 -7.674 0.000000 3.329506 0.000 0 0.000
35601.00 1204.93 100.138999 0.0000000000000000 0.000000 238.646550 -1199704.678052 30.078342 123.890568 -20.442937 1356.433111 -7.680 -7.680 0.000000 3.329273 0.000 0 0.000
35501.00 1204.75 100.138999 0.0000000000000000 0.000000 238.646550 -1200005.472010 30.080450 123.896283 -20.450278 1356.384373 -7.686 -7.686 0.000000 3.329039 0.000 0 0.000
35401.00 1204.57 100.138999 0.0000000000000000 0.000000 238.646550 -1200306.287067 30.082562 123.901999 -20.457628 1356.335879 -7.691 -7.691 0.000000 3.328806 0.000 0 0.000
35301.00 1204.39 100.138999 0.0000000000000000 0.000000 238.646550 -1200607.123257 30.084677 123.907717 -20.464987 1356.287631 -7.697 -7.697 0.000000 3.328572 0.000 0 0.000
35201.00 1204.22 100.138999 0.0000000000000000 0.000000 238.646550 -1200907.980613 30.086795 123.913437 -20.472354 1356.239632 -7.703 -7.703 0.000000 3.328337 0.000 0 0.000
35101.00 1204.04 100.138999 0.0000000000000000 0.000000 238.646550 -1201208.859168 30.088917 123.919159 -20.479729 1356.191885 -7.709 -7.709 0.000000 3.328103 0.000 0 0.000
35001.00 1203.86 100.138999 0.0000000000000000 0.000000 238.646550 -1201509.758956 30.091042 123.924882 -20.487113 1356.144394 -7.715 -7.715 0.000000 3.327867 0.000 0 0.000
34901.00 1203.68 100.138999 0.0000000000000000 0.000000 238.646550 -1201810.680011 30.093170 123.930607 -20.494506 1356.097160 -7.720 -7.720 0.000000 3.327632 0.000 0 0.000
34801.00 1203.50 100.138999 0.0000000000000000 0.000000 238.646550 -1202111.622367 30.095302 123.936334 -20.501908 1356.050188 -7.726 -7.726 0.000000 3.327396 0.000 0 0.000
34701.00 1203.33 100.138999 0.0000000000000000 0.000000 238.646550 -1202412.586058 30.097437 123.942064 -20.509319 1356.003481 -7.732 -7.732 0.000000 3.327160 0.000 0 0.000
34601.00 1203.15 100.138999 0.0000000000000000 0.000000 238.646550 -1202713.571121 30.099576 123.947795 -20.516739 1355.957041 -7.738 -7.738 0.000000 3.326924 0.000 0 0.000
34501.00 1202.97 100.138999 0.0000000000000000 0.000000 238.646550 -1203014.577589 30.101718 123.953528 -20.524168 1355.910872 -7.744 -7.744 0.000000 3.326687 0.000 0 0.000
34401.00 1202.79 100.138999 0.0000000000000000 0.000000 238.646550 -1203315.605500 30.103864 123.959263 -20.531607 1355.864977 -7.750 -7.750 0.000000 3.326450 0.000 0 0.000
34301.00 1202.61 100.138999 0.0000000000000000 0.000000 238.646550 -1203616.654889 30.106014 123.965000 -20.539055 1355.819360 -7.756 -7.756 0.000000 3.326212 0.000 0 0.000
34201.00 1202.43 100.138999 0.0000000000000000 0.000000 238.646550 -1203917.725793 30.108167 123.970740 -20.546512 1355.774024 -7.762 -7.762 0.000000 3.325975 0.000 0 0.000
34101.00 1202.26 100.138999 0.0000000000000000 0.000000 238.646550 -1204218.818249 30.110324 123.976482 -20.553980 1355.728972 -7.768 -7.768 0.000000 3.325736 0.000 0 0.000
34001.00 1202.08 100.138999 0.0000000000000000 0.000000 238.646550 -1204519.932293 30.112485 123.982226 -20.561457 1355.684209 -7.774 -7.774 0.000000 3.325498 0.000 0 0.000
33901.00 1201.90 100.138999 0.0000000000000000 0.000000 238.646550 -1204821.067965 30.114650 123.987972 -20.568943 1355.639738 -7.780 -7.780 0.000000 3.325259 0.000 0 0.000
33801.00 1201.72 100.138999 0.0000000000000000 0.000000 238.646550 -1205122.225301 30.116818 123.993721 -20.576440 1355.595562 -7.786 -7.786 0.000000 3.325019 0.000 0 0.000
33701.00 1201.54 100.138999 0.0000000000000000 0.000000 238.646550 -1205423.404341 30.118990 123.999473 -20.583948 1355.551686 -7.792 -7.792 0.000000 3.324779 0.000 0 0.000
33601.00 1201.36 100.138999 0.0000000000000000 0.000000 238.646550 -1205724.605123 30.121167 124.005227 -20.591465 1355.508113 -7.798 -7.798 0.000000 3.324539 0.000 0 0.000
33501.00 1201.18 100.138999 0.0000000000000000 0.000000 238.646550 -1206025.827687 30.123347 124.010984 -20.598993 1355.464847 -7.804 -7.804 0.000000 3.324299 0.000 0 0.000
33401.00 1201.00 100.138999 0.0000000000000000 0.000000 238.646550 -1206327.072073 30.125531 124.016743 -20.606531 1355.421892 -7.810 -7.810 0.000000 3.324058 0.000 0 0.000
33301.00 1200.82 100.138999 0.0000000000000000 0.000000 238.646550 -1206628.338321 30.127719 124.022506 -20.614081 1355.379253 -7.817 -7.817 0.000000 3.323816 0.000 0 0.000
33201.00 1200.64 100.138999 0.0000000000000000 0.000000 238.646550 -1206929.626472 30.129912 124.028271 -20.621641 1355.336934 -7.823 -7.823 0.000000 3.323574 0.000 0 0.000
33101.00 1200.47 100.138999 0.0000000000000000 0.000000 238.646550 -1207230.936567 30.132108 124.034039 -20.629211 1355.294938 -7.829 -7.829 0.000000 3.323332 0.000 0 0.000
33001.00 1200.29 100.138999 0.0000000000000000 0.000000 238.646550 -1207532.268649 30.134309 124.039810 -20.636794 1355.253271 -7.835 -7.835 0.000000 3.323089 0.000 0 0.000
32901.00 1200.11 100.138999 0.0000000000000000 0.000000 238.646550 -1207833.622758 30.136514 124.045584 -20.644387 1355.211937 -7.841 -7.841 0.000000 3.322846 0.000 0 0.000
32801.00 1199.93 100.138999 0.0000000000000000 0.000000 238.646550 -1208134.998939 30.138723 124.051361 -20.651992 1355.170939 -7.848 -7.848 0.000000 3.322603 0.000 0 0.000
