Title: Depleted MORB Mantle of Workmann & Hart 2005

Liquid Composition:
Pressure Temperature mass SiO2 TiO2 Al2O3 Fe2O3 Cr2O3 FeO MnO MgO NiO CaO Na2O 
44001.00 1208.92 0.000000 ---
43901.00 1208.75 0.000000 ---
43801.00 1208.58 0.000000 ---
43701.00 1208.40 0.000000 ---
43601.00 1208.23 0.000000 ---
43501.00 1208.06 0.000000 ---
43401.00 1207.88 0.000000 ---
43301.00 1207.71 0.000000 ---
43201.00 1207.54 0.000000 ---
43101.00 1207.36 0.000000 ---
43001.00 1207.19 0.000000 ---
42901.00 1207.02 0.000000 ---
42801.00 1206.84 0.000000 ---
42701.00 1206.67 0.000000 ---
42601.00 1206.49 0.000000 ---
42501.00 1206.32 0.000000 ---
42401.00 1206.15 0.000000 ---
42301.00 1205.97 0.000000 ---
42201.00 1205.80 0.000000 ---
42101.00 1205.63 0.000000 ---
42001.00 1205.45 0.000000 ---
41901.00 1205.28 0.000000 ---
41801.00 1205.11 0.000000 ---
41701.00 1204.93 0.000000 ---
41601.00 1204.76 0.000000 ---
41501.00 1204.59 0.000000 ---
41401.00 1204.41 0.000000 ---
41301.00 1204.24 0.000000 ---
41201.00 1204.06 0.000000 ---
41101.00 1203.89 0.000000 ---
41001.00 1203.72 0.000000 ---
40901.00 1203.54 0.000000 ---
40801.00 1203.37 0.000000 ---
40701.00 1203.20 0.000000 ---
40601.00 1203.02 0.000000 ---
40501.00 1202.85 0.000000 ---
40401.00 1202.67 0.000000 ---
40301.00 1202.50 0.000000 ---
40201.00 1202.33 0.000000 ---
40101.00 1202.15 0.000000 ---
40001.00 1201.98 0.000000 ---
39901.00 1201.80 0.000000 ---
39801.00 1201.63 0.000000 ---
39701.00 1201.46 0.000000 ---
39601.00 1201.28 0.000000 ---
39501.00 1201.11 0.000000 ---
39401.00 1200.93 0.000000 ---
39301.00 1200.76 0.000000 ---
39201.00 1200.58 0.000000 ---
39101.00 1200.41 0.000000 ---
39001.00 1200.24 0.000000 ---
38901.00 1200.06 0.000000 ---
38801.00 1199.89 0.000000 ---
38701.00 1199.71 0.000000 ---
38601.00 1199.54 0.000000 ---
38501.00 1199.36 0.000000 ---
38401.00 1199.19 0.000000 ---
38301.00 1199.02 0.000000 ---
38201.00 1198.84 0.000000 ---
38101.00 1198.67 0.000000 ---
38001.00 1198.49 0.000000 ---
37901.00 1198.32 0.000000 ---
37801.00 1198.14 0.000000 ---
37701.00 1197.97 0.000000 ---
37601.00 1197.79 0.000000 ---
37501.00 1197.62 0.000000 ---
37401.00 1197.44 0.000000 ---
37301.00 1197.27 0.000000 ---
37201.00 1197.09 0.000000 ---
37101.00 1196.92 0.000000 ---
37001.00 1196.74 0.000000 ---
36901.00 1196.57 0.000000 ---
36801.00 1196.39 0.000000 ---
36701.00 1196.22 0.000000 ---
36601.00 1196.04 0.000000 ---
36501.00 1195.87 0.000000 ---
36401.00 1195.69 0.000000 ---
36301.00 1195.52 0.000000 ---
36201.00 1195.34 0.000000 ---
36101.00 1195.17 0.000000 ---
36001.00 1194.99 0.000000 ---
35901.00 1194.82 0.000000 ---
35801.00 1194.64 0.000000 ---
35701.00 1194.46 0.000000 ---
35601.00 1194.29 0.000000 ---
35501.00 1194.11 0.000000 ---
35401.00 1193.94 0.000000 ---
35301.00 1193.76 0.000000 ---
35201.00 1193.59 0.000000 ---
35101.00 1193.41 0.000000 ---
35001.00 1193.23 0.000000 ---
34901.00 1193.06 0.000000 ---
34801.00 1192.88 0.000000 ---
34701.00 1192.71 0.000000 ---
34601.00 1192.53 0.000000 ---
34501.00 1192.35 0.000000 ---
34401.00 1192.18 0.000000 ---
34301.00 1192.00 0.000000 ---
34201.00 1191.82 0.000000 ---
34101.00 1191.65 0.000000 ---
34001.00 1191.47 0.000000 ---
33901.00 1191.29 0.000000 ---
33801.00 1191.12 0.000000 ---
33701.00 1190.94 0.000000 ---
33601.00 1190.76 0.000000 ---
33501.00 1190.59 0.000000 ---
33401.00 1190.41 0.000000 ---
33301.00 1190.23 0.000000 ---
33201.00 1190.05 0.000000 ---
33101.00 1189.88 0.000000 ---
33001.00 1189.70 0.000000 ---
32901.00 1189.52 0.000000 ---
32801.00 1189.35 0.000000 ---
32701.00 1189.17 0.000000 ---
32601.00 1188.99 0.000000 ---
32501.00 1188.81 0.000000 ---
32401.00 1188.63 0.000000 ---
32301.00 1188.46 0.000000 ---
32201.00 1188.28 0.000000 ---
32101.00 1188.10 0.000000 ---
32001.00 1187.92 0.000000 ---
31901.00 1187.74 0.000000 ---
31801.00 1187.57 0.000000 ---
31701.00 1187.39 0.000000 ---
31601.00 1187.21 0.000000 ---
31501.00 1187.03 0.000000 ---
31401.00 1186.85 0.000000 ---
31301.00 1186.67 0.000000 ---
31201.00 1186.49 0.000000 ---
31101.00 1186.31 0.000000 ---
31001.00 1186.13 0.000000 ---
30901.00 1185.96 0.000000 ---
30801.00 1185.78 0.000000 ---
30701.00 1185.60 0.000000 ---
30601.00 1185.42 0.000000 ---
30501.00 1185.24 0.000000 ---
30401.00 1185.06 0.000000 ---
30301.00 1184.88 0.000000 ---
30201.00 1184.70 0.000000 ---
30101.00 1184.52 0.000000 ---
30001.00 1184.34 0.000000 ---
29901.00 1184.16 0.000000 ---
29801.00 1183.98 0.000000 ---
29701.00 1183.79 0.000000 ---
29601.00 1183.61 0.000000 ---
29501.00 1183.43 0.000000 ---
29401.00 1183.25 0.000000 ---
29301.00 1183.07 0.000000 ---
29201.00 1182.89 0.000000 ---
29101.00 1182.71 0.000000 ---
29001.00 1182.52 0.000000 ---
28901.00 1182.34 0.000000 ---
28801.00 1182.16 0.000000 ---
28701.00 1181.98 0.000000 ---
28601.00 1181.80 0.000000 ---
28501.00 1181.61 0.000000 ---
28401.00 1181.43 0.000000 ---
28301.00 1181.25 0.000000 ---
28201.00 1181.06 0.000000 ---
28101.00 1180.88 0.000000 ---
28001.00 1180.70 0.000000 ---
27901.00 1180.51 0.000000 ---
27801.00 1180.33 0.000000 ---
27701.00 1180.15 0.000000 ---
27601.00 1179.96 0.000000 ---
27501.00 1179.78 0.000000 ---
27401.00 1179.59 0.000000 ---
27301.00 1179.41 0.000000 ---
27201.00 1179.22 0.000000 ---
27101.00 1179.04 0.000000 ---
27001.00 1178.85 0.000000 ---
26901.00 1178.67 0.000000 ---
26801.00 1178.48 0.000000 ---
26701.00 1178.29 0.000000 ---
26601.00 1178.11 0.000000 ---
26501.00 1177.92 0.000000 ---
26401.00 1177.73 0.000000 ---
26301.00 1177.55 0.000000 ---
26201.00 1177.36 0.000000 ---
26101.00 1177.17 0.000000 ---
26001.00 1176.98 0.000000 ---
25901.00 1176.79 0.000000 ---
25801.00 1176.61 0.000000 ---
25701.00 1176.42 0.000000 ---
25601.00 1176.23 0.000000 ---
25501.00 1176.04 0.000000 ---
25401.00 1175.85 0.000000 ---
25301.00 1175.66 0.000000 ---
25201.00 1175.47 0.000000 ---
25101.00 1175.28 0.000000 ---
25001.00 1175.09 0.000000 ---
24901.00 1174.89 0.000000 ---
24801.00 1174.70 0.000000 ---
24701.00 1174.51 0.000000 ---
24601.00 1174.32 0.000000 ---
24501.00 1174.13 0.000000 ---
24401.00 1173.93 0.000000 ---
24301.00 1173.74 0.000000 ---
24201.00 1173.55 0.000000 ---
24101.00 1173.35 0.000000 ---
24001.00 1173.16 0.000000 ---
23901.00 1172.96 0.000000 ---
23801.00 1172.77 0.000000 ---
23701.00 1172.57 0.000000 ---
23601.00 1172.37 0.000000 ---
23501.00 1172.18 0.000000 ---
23401.00 1171.98 0.000000 ---
23301.00 1171.78 0.000000 ---
23201.00 1171.58 0.000000 ---
23101.00 1171.38 0.000000 ---
23001.00 1171.18 0.000000 ---
22901.00 1170.99 0.000000 ---
22801.00 1170.78 0.000000 ---
22701.00 1170.58 0.000000 ---
22601.00 1170.38 0.000000 ---
22501.00 1170.18 0.000000 ---
22401.00 1169.98 0.000000 ---
22301.00 1169.78 0.000000 ---
22201.00 1169.57 0.000000 ---
22101.00 1169.37 0.000000 ---
22001.00 1169.16 0.000000 ---
21901.00 1168.96 0.000000 ---
21801.00 1168.75 0.000000 ---
21701.00 1168.54 0.000000 ---
21601.00 1168.34 0.000000 ---
21501.00 1168.13 0.000000 ---
21401.00 1167.92 0.000000 ---
21301.00 1167.71 0.000000 ---
21201.00 1167.50 0.000000 ---
21101.00 1167.29 0.000000 ---
21001.00 1167.08 0.000000 ---
20901.00 1166.86 0.000000 ---
20801.00 1166.65 0.000000 ---
20701.00 1166.44 0.000000 ---
20601.00 1166.22 0.000000 ---
20501.00 1166.00 0.000000 ---
20401.00 1165.79 0.000000 ---
20301.00 1165.57 0.000000 ---
20201.00 1165.35 0.000000 ---
20101.00 1165.13 0.000000 ---
20001.00 1164.91 0.000000 ---
19901.00 1164.69 0.000000 ---
19801.00 1164.46 0.000000 ---
19701.00 1164.24 0.000000 ---
19601.00 1164.01 0.000000 ---
19501.00 1163.79 0.000000 ---
19401.00 1163.56 0.000000 ---
19301.00 1163.33 0.000000 ---
19201.00 1163.10 0.000000 ---
19101.00 1162.87 0.000000 ---
19001.00 1162.63 0.000000 ---
18901.00 1162.40 0.000000 ---
18801.00 1162.16 0.000000 ---
18701.00 1161.92 0.000000 ---
18601.00 1161.68 0.000000 ---
18501.00 1161.44 0.000000 ---
18401.00 1161.20 0.000000 ---
18301.00 1160.95 0.000000 ---
18201.00 1160.71 0.000000 ---
18101.00 1160.46 0.000000 ---
18001.00 1160.20 0.000000 ---
17901.00 1159.95 0.000000 ---
17801.00 1159.70 0.000000 ---
17701.00 1159.44 0.000000 ---
17601.00 1159.18 0.000000 ---
17501.00 1158.91 0.000000 ---
17401.00 1158.65 0.000000 ---
17301.00 1158.38 0.000000 ---
17201.00 1158.11 0.000000 ---
17101.00 1157.83 0.000000 ---
17001.00 1157.56 0.000000 ---
16901.00 1157.28 0.000000 ---
16801.00 1156.99 0.000000 ---
16701.00 1156.73 0.000000 ---
16601.00 1156.57 0.000000 ---
16501.00 1156.41 0.000000 ---
16401.00 1156.25 0.000000 ---
16301.00 1156.08 0.000000 ---
16201.00 1155.92 0.000000 ---
16101.00 1155.76 0.000000 ---
16001.00 1155.60 0.000000 ---
15901.00 1155.44 0.000000 ---
15801.00 1155.28 0.000000 ---
15701.00 1155.12 0.000000 ---
15601.00 1154.96 0.000000 ---
15501.00 1154.80 0.000000 ---
15401.00 1154.64 0.000000 ---
15301.00 1154.48 0.000000 ---
15201.00 1154.31 0.000000 ---
15101.00 1154.15 0.000000 ---
15001.00 1153.99 0.000000 ---
14901.00 1153.83 0.000000 ---
14801.00 1153.67 0.000000 ---
14701.00 1153.51 0.000000 ---
14601.00 1153.35 0.000000 ---
14501.00 1153.19 0.000000 ---
14401.00 1153.03 0.000000 ---
14301.00 1152.87 0.000000 ---
14201.00 1152.71 0.000000 ---
14101.00 1152.55 0.000000 ---
14001.00 1152.39 0.000000 ---
13901.00 1152.22 0.000000 ---
13801.00 1152.06 0.000000 ---
13701.00 1151.90 0.000000 ---
13601.00 1151.74 0.000000 ---
13501.00 1151.58 0.000000 ---
13401.00 1151.42 0.000000 ---
13301.00 1151.26 0.000000 ---
13201.00 1151.10 0.000000 ---
13101.00 1150.94 0.000000 ---
13001.00 1150.78 0.000000 ---
12901.00 1150.62 0.000000 ---
12801.00 1150.46 0.000000 ---
12701.00 1150.30 0.000000 ---
12601.00 1150.14 0.000000 ---
12501.00 1149.97 0.000000 ---
12401.00 1149.81 0.000000 ---
12301.00 1149.65 0.000000 ---
12201.00 1149.49 0.000000 ---
12101.00 1149.33 0.000000 ---
12001.00 1149.17 0.000000 ---
11901.00 1149.01 0.000000 ---
11801.00 1148.85 0.000000 ---
11701.00 1148.69 0.000000 ---
11601.00 1148.53 0.000000 ---
11501.00 1148.37 0.000000 ---
11401.00 1148.21 0.000000 ---
11301.00 1148.05 0.000000 ---
11201.00 1147.89 0.000000 ---
11101.00 1147.73 0.000000 ---
11001.00 1147.57 0.000000 ---
10901.00 1147.41 0.000000 ---
10801.00 1147.24 0.000000 ---
10701.00 1147.08 0.000000 ---
10601.00 1146.92 0.000000 ---
10501.00 1146.76 0.000000 ---
10401.00 1146.60 0.000000 ---
10301.00 1146.44 0.000000 ---
10201.00 1146.28 0.000000 ---
10101.00 1146.12 0.000000 ---
10001.00 1145.96 0.000000 ---
9901.00 1145.80 0.000000 ---
9801.00 1145.64 0.000000 ---
9701.00 1145.48 0.000000 ---
9601.00 1145.32 0.000000 ---
9501.00 1145.16 0.000000 ---
9401.00 1145.00 0.000000 ---
9301.00 1144.84 0.000000 ---
9201.00 1144.64 0.000000 ---
9101.00 1144.41 0.000000 ---
9001.00 1144.19 0.000000 ---
8901.00 1143.96 0.000000 ---
8801.00 1143.74 0.000000 ---
8701.00 1143.52 0.000000 ---
8601.00 1143.30 0.000000 ---
8501.00 1143.08 0.000000 ---
8401.00 1142.86 0.000000 ---
8301.00 1142.64 0.000000 ---
8201.00 1142.42 0.000000 ---
8101.00 1142.20 0.000000 ---
8001.00 1141.98 0.000000 ---
7901.00 1141.77 0.000000 ---
7801.00 1141.55 0.000000 ---
7701.00 1141.33 0.000000 ---
7601.00 1141.12 0.000000 ---
7501.00 1140.90 0.000000 ---
7401.00 1140.68 0.000000 ---
7301.00 1140.47 0.000000 ---
7201.00 1140.25 0.000000 ---
7101.00 1140.03 0.000000 ---
7001.00 1139.82 0.000000 ---
6901.00 1139.60 0.000000 ---
6801.00 1139.38 0.000000 ---
6701.00 1139.17 0.000000 ---
6601.00 1138.95 0.000000 ---
6501.00 1138.73 0.000000 ---
6401.00 1138.51 0.000000 ---
6301.00 1138.29 0.000000 ---
6201.00 1138.07 0.000000 ---
6101.00 1137.85 0.000000 ---
6001.00 1137.63 0.000000 ---
5901.00 1137.41 0.000000 ---
5801.00 1137.18 0.000000 ---
5701.00 1136.96 0.000000 ---
5601.00 1136.73 0.000000 ---
5501.00 1136.51 0.000000 ---
5401.00 1136.28 0.000000 ---
5301.00 1136.05 0.000000 ---
5201.00 1135.82 0.000000 ---
5101.00 1135.59 0.000000 ---
5001.00 1135.36 0.000000 ---
4901.00 1135.13 0.000000 ---
4801.00 1134.89 0.000000 ---
4701.00 1134.66 0.000000 ---
4601.00 1134.42 0.000000 ---
4501.00 1134.19 0.000000 ---
4401.00 1133.95 0.000000 ---
4301.00 1133.71 0.000000 ---
4201.00 1133.48 0.000000 ---
4101.00 1133.24 0.000000 ---
4001.00 1133.00 0.000000 ---
3901.00 1132.77 0.000000 ---
3801.00 1132.53 0.000000 ---
3701.00 1132.30 0.000000 ---
3601.00 1132.06 0.000000 ---
3501.00 1131.83 0.000000 ---
3401.00 1131.60 0.000000 ---
3301.00 1131.37 0.000000 ---
3201.00 1131.15 0.000000 ---
3101.00 1130.92 0.000000 ---
3001.00 1130.70 0.000000 ---
2901.00 1130.48 0.000000 ---
2801.00 1130.27 0.000000 ---
2701.00 1130.05 0.000000 ---
2601.00 1129.84 0.000000 ---
2501.00 1129.63 0.000000 ---
2401.00 1129.42 0.000000 ---
2301.00 1129.22 0.000000 ---
2201.00 1129.01 0.000000 ---
2101.00 1128.81 0.000000 ---
2001.00 1128.62 0.000000 ---
1901.00 1128.42 0.000000 ---
1801.00 1128.23 0.000000 ---
1701.00 1128.04 0.000000 ---
1601.00 1127.85 0.000000 ---
1501.00 1127.66 0.000000 ---
1401.00 1127.47 0.000000 ---
1301.00 1127.29 0.000000 ---
1201.00 1127.10 0.000000 ---
1101.00 1126.92 0.000000 ---
1001.00 1126.74 0.000000 ---
901.00 1126.56 0.000000 ---
801.00 1126.39 0.000000 ---
701.00 1126.21 0.000000 ---
601.00 1126.03 0.000000 ---
501.00 1125.86 0.000000 ---
401.00 1124.01 0.757828 58.9797 1.49778 17.1703 0.744311 0.0830312 2.84712 0.00246262 6.36415 0.00117937 10.7153 1.59474
301.00 1122.05 1.571244 59.2005 1.40542 17.1588 0.730525 0.0822013 2.80381 0.00238344 6.31777 0.00113908 10.7238 1.5736
201.00 1120.06 1.826211 59.4187 1.31589 17.1475 0.716502 0.0813871 2.76102 0.00230672 6.27131 0.00110009 10.7316 1.55267
101.00 1118.03 1.828721 59.6355 1.22776 17.1366 0.702175 0.0805771 2.7187 0.00223211 6.22476 0.00106223 10.7389 1.5318
1.00 1115.98 1.831629 59.8504 1.14133 17.1261 0.687569 0.0797724 2.67689 0.00215958 6.17816 0.00102549 10.7457 1.51093