Title: Depleted MORB Mantle of Workmann & Hart 2005

System Thermodynamic Data:
Pressure Temperature mass F phi S H V Cp dVdP*10^6 dVdT*10^6 fO2(absolute) fO2(absolute) rhol rhos viscosity aH2O chisqr
44001.00 1208.92 100.138999 0.0000000000000000 0.000000 237.735966 -1175864.975768 29.894636 123.314346 -19.845809 1356.169301 -7.344 -7.344 0.000000 3.349731 0.000 0 0.000
43901.00 1208.75 100.138999 0.0000000000000000 0.000000 237.735966 -1176163.931675 29.896545 123.319965 -19.852677 1356.107207 -7.349 -7.349 0.000000 3.349517 0.000 0 0.000
43801.00 1208.58 100.138999 0.0000000000000000 0.000000 237.735966 -1176462.906680 29.898456 123.325582 -19.859548 1356.045221 -7.353 -7.353 0.000000 3.349303 0.000 0 0.000
43701.00 1208.40 100.138999 0.0000000000000000 0.000000 237.735966 -1176761.900800 29.900368 123.331200 -19.866423 1355.983346 -7.358 -7.358 0.000000 3.349089 0.000 0 0.000
43601.00 1208.23 100.138999 0.0000000000000000 0.000000 237.735966 -1177060.914055 29.902283 123.336817 -19.873301 1355.921580 -7.362 -7.362 0.000000 3.348875 0.000 0 0.000
43501.00 1208.06 100.138999 0.0000000000000000 0.000000 237.735966 -1177359.946460 29.904199 123.342434 -19.880183 1355.859927 -7.367 -7.367 0.000000 3.348660 0.000 0 0.000
43401.00 1207.88 100.138999 0.0000000000000000 0.000000 237.735966 -1177658.998035 29.906117 123.348050 -19.887069 1355.798385 -7.371 -7.371 0.000000 3.348445 0.000 0 0.000
43301.00 1207.71 100.138999 0.0000000000000000 0.000000 237.735966 -1177958.068797 29.908036 123.353666 -19.893958 1355.736957 -7.376 -7.376 0.000000 3.348231 0.000 0 0.000
43201.00 1207.54 100.138999 0.0000000000000000 0.000000 237.735966 -1178257.158764 29.909958 123.359282 -19.900852 1355.675643 -7.381 -7.381 0.000000 3.348015 0.000 0 0.000
43101.00 1207.36 100.138999 0.0000000000000000 0.000000 237.735966 -1178556.267954 29.911881 123.364897 -19.907749 1355.614443 -7.385 -7.385 0.000000 3.347800 0.000 0 0.000
43001.00 1207.19 100.138999 0.0000000000000000 0.000000 237.735966 -1178855.396385 29.913806 123.370513 -19.914649 1355.553360 -7.390 -7.390 0.000000 3.347585 0.000 0 0.000
42901.00 1207.02 100.138999 0.0000000000000000 0.000000 237.735966 -1179154.544076 29.915733 123.376128 -19.921554 1355.492393 -7.395 -7.395 0.000000 3.347369 0.000 0 0.000
42801.00 1206.84 100.138999 0.0000000000000000 0.000000 237.735966 -1179453.711045 29.917661 123.381742 -19.928463 1355.431544 -7.399 -7.399 0.000000 3.347153 0.000 0 0.000
42701.00 1206.67 100.138999 0.0000000000000000 0.000000 237.735966 -1179752.897311 29.919592 123.387357 -19.935375 1355.370813 -7.404 -7.404 0.000000 3.346937 0.000 0 0.000
42601.00 1206.49 100.138999 0.0000000000000000 0.000000 237.735966 -1180052.102891 29.921524 123.392971 -19.942291 1355.310202 -7.409 -7.409 0.000000 3.346721 0.000 0 0.000
42501.00 1206.32 100.138999 0.0000000000000000 0.000000 237.735966 -1180351.327806 29.923459 123.398585 -19.949212 1355.249711 -7.413 -7.413 0.000000 3.346505 0.000 0 0.000
42401.00 1206.15 100.138999 0.0000000000000000 0.000000 237.735966 -1180650.572074 29.925395 123.404199 -19.956136 1355.189342 -7.418 -7.418 0.000000 3.346288 0.000 0 0.000
42301.00 1205.97 100.138999 0.0000000000000000 0.000000 237.735966 -1180949.835713 29.927333 123.409812 -19.963065 1355.129096 -7.423 -7.423 0.000000 3.346072 0.000 0 0.000
42201.00 1205.80 100.138999 0.0000000000000000 0.000000 237.735966 -1181249.118744 29.929273 123.415426 -19.969997 1355.068972 -7.428 -7.428 0.000000 3.345855 0.000 0 0.000
42101.00 1205.63 100.138999 0.0000000000000000 0.000000 237.735966 -1181548.421184 29.931215 123.421039 -19.976934 1355.008973 -7.432 -7.432 0.000000 3.345638 0.000 0 0.000
42001.00 1205.45 100.138999 0.0000000000000000 0.000000 237.735966 -1181847.743053 29.933159 123.426652 -19.983875 1354.949100 -7.437 -7.437 0.000000 3.345420 0.000 0 0.000
41901.00 1205.28 100.138999 0.0000000000000000 0.000000 237.735966 -1182147.084372 29.935105 123.432265 -19.990820 1354.889352 -7.442 -7.442 0.000000 3.345203 0.000 0 0.000
41801.00 1205.11 100.138999 0.0000000000000000 0.000000 237.735966 -1182446.445158 29.937053 123.437878 -19.997770 1354.829733 -7.447 -7.447 0.000000 3.344985 0.000 0 0.000
41701.00 1204.93 100.138999 0.0000000000000000 0.000000 237.735966 -1182745.825432 29.939002 123.443490 -20.004723 1354.770242 -7.451 -7.451 0.000000 3.344767 0.000 0 0.000
41601.00 1204.76 100.138999 0.0000000000000000 0.000000 237.735966 -1183045.225214 29.940954 123.449103 -20.011681 1354.710880 -7.456 -7.456 0.000000 3.344549 0.000 0 0.000
41501.00 1204.59 100.138999 0.0000000000000000 0.000000 237.735966 -1183344.644523 29.942908 123.454716 -20.018643 1354.651649 -7.461 -7.461 0.000000 3.344331 0.000 0 0.000
41401.00 1204.41 100.138999 0.0000000000000000 0.000000 237.735966 -1183644.083380 29.944864 123.460328 -20.025610 1354.592550 -7.466 -7.466 0.000000 3.344113 0.000 0 0.000
41301.00 1204.24 100.138999 0.0000000000000000 0.000000 237.735966 -1183943.541804 29.946821 123.465940 -20.032581 1354.533584 -7.471 -7.471 0.000000 3.343894 0.000 0 0.000
41201.00 1204.06 100.138999 0.0000000000000000 0.000000 237.735966 -1184243.019816 29.948781 123.471553 -20.039557 1354.474752 -7.476 -7.476 0.000000 3.343675 0.000 0 0.000
41101.00 1203.89 100.138999 0.0000000000000000 0.000000 237.735966 -1184542.517436 29.950743 123.477165 -20.046537 1354.416055 -7.481 -7.481 0.000000 3.343456 0.000 0 0.000
41001.00 1203.72 100.138999 0.0000000000000000 0.000000 237.735966 -1184842.034685 29.952707 123.482778 -20.053522 1354.357494 -7.485 -7.485 0.000000 3.343237 0.000 0 0.000
40901.00 1203.54 100.138999 0.0000000000000000 0.000000 237.735966 -1185141.571583 29.954673 123.488390 -20.060512 1354.299071 -7.490 -7.490 0.000000 3.343018 0.000 0 0.000
40801.00 1203.37 100.138999 0.0000000000000000 0.000000 237.735966 -1185441.128151 29.956641 123.494002 -20.067506 1354.240786 -7.495 -7.495 0.000000 3.342798 0.000 0 0.000
40701.00 1203.20 100.138999 0.0000000000000000 0.000000 237.735966 -1185740.704410 29.958611 123.499615 -20.074504 1354.182641 -7.500 -7.500 0.000000 3.342578 0.000 0 0.000
40601.00 1203.02 100.138999 0.0000000000000000 0.000000 237.735966 -1186040.300382 29.960583 123.505227 -20.081508 1354.124638 -7.505 -7.505 0.000000 3.342358 0.000 0 0.000
40501.00 1202.85 100.138999 0.0000000000000000 0.000000 237.735966 -1186339.916086 29.962558 123.510840 -20.088516 1354.066776 -7.510 -7.510 0.000000 3.342138 0.000 0 0.000
40401.00 1202.67 100.138999 0.0000000000000000 0.000000 237.735966 -1186639.551545 29.964534 123.516453 -20.095529 1354.009058 -7.515 -7.515 0.000000 3.341917 0.000 0 0.000
40301.00 1202.50 100.138999 0.0000000000000000 0.000000 237.735966 -1186939.206779 29.966513 123.522066 -20.102547 1353.951485 -7.520 -7.520 0.000000 3.341697 0.000 0 0.000
40201.00 1202.33 100.138999 0.0000000000000000 0.000000 237.735966 -1187238.881811 29.968494 123.527679 -20.109570 1353.894058 -7.525 -7.525 0.000000 3.341476 0.000 0 0.000
40101.00 1202.15 100.138999 0.0000000000000000 0.000000 237.735966 -1187538.576663 29.970477 123.533292 -20.116598 1353.836779 -7.530 -7.530 0.000000 3.341255 0.000 0 0.000
40001.00 1201.98 100.138999 0.0000000000000000 0.000000 237.735966 -1187838.291355 29.972462 123.538905 -20.123631 1353.779648 -7.535 -7.535 0.000000 3.341033 0.000 0 0.000
39901.00 1201.80 100.138999 0.0000000000000000 0.000000 237.735966 -1188138.025911 29.974449 123.544519 -20.130669 1353.722667 -7.540 -7.540 0.000000 3.340812 0.000 0 0.000
39801.00 1201.63 100.138999 0.0000000000000000 0.000000 237.735966 -1188437.780352 29.976439 123.550132 -20.137712 1353.665838 -7.545 -7.545 0.000000 3.340590 0.000 0 0.000
39701.00 1201.46 100.138999 0.0000000000000000 0.000000 237.735966 -1188737.554701 29.978431 123.555746 -20.144760 1353.609161 -7.550 -7.550 0.000000 3.340368 0.000 0 0.000
39601.00 1201.28 100.138999 0.0000000000000000 0.000000 237.735966 -1189037.348979 29.980425 123.561360 -20.151814 1353.552639 -7.555 -7.555 0.000000 3.340146 0.000 0 0.000
39501.00 1201.11 100.138999 0.0000000000000000 0.000000 237.735966 -1189337.163211 29.982422 123.566975 -20.158872 1353.496272 -7.560 -7.560 0.000000 3.339924 0.000 0 0.000
39401.00 1200.93 100.138999 0.0000000000000000 0.000000 237.735966 -1189636.997418 29.984420 123.572590 -20.165936 1353.440062 -7.565 -7.565 0.000000 3.339701 0.000 0 0.000
39301.00 1200.76 100.138999 0.0000000000000000 0.000000 237.735966 -1189936.851624 29.986421 123.578205 -20.173006 1353.384011 -7.571 -7.571 0.000000 3.339478 0.000 0 0.000
39201.00 1200.58 100.138999 0.0000000000000000 0.000000 237.735966 -1190236.725852 29.988425 123.583820 -20.180081 1353.328120 -7.576 -7.576 0.000000 3.339255 0.000 0 0.000
39101.00 1200.41 100.138999 0.0000000000000000 0.000000 237.735966 -1190536.620124 29.990430 123.589436 -20.187161 1353.272390 -7.581 -7.581 0.000000 3.339032 0.000 0 0.000
39001.00 1200.24 100.138999 0.0000000000000000 0.000000 237.735966 -1190836.534465 29.992438 123.595052 -20.194247 1353.216823 -7.586 -7.586 0.000000 3.338808 0.000 0 0.000
38901.00 1200.06 100.138999 0.0000000000000000 0.000000 237.735966 -1191136.468898 29.994449 123.600669 -20.201338 1353.161420 -7.591 -7.591 0.000000 3.338584 0.000 0 0.000
38801.00 1199.89 100.138999 0.0000000000000000 0.000000 237.735966 -1191436.423447 29.996461 123.606286 -20.208435 1353.106184 -7.596 -7.596 0.000000 3.338360 0.000 0 0.000
38701.00 1199.71 100.138999 0.0000000000000000 0.000000 237.735966 -1191736.398136 29.998477 123.611903 -20.215538 1353.051115 -7.602 -7.602 0.000000 3.338136 0.000 0 0.000
38601.00 1199.54 100.138999 0.0000000000000000 0.000000 237.735966 -1192036.392989 30.000494 123.617521 -20.222647 1352.996215 -7.607 -7.607 0.000000 3.337912 0.000 0 0.000
38501.00 1199.36 100.138999 0.0000000000000000 0.000000 237.735966 -1192336.408030 30.002514 123.623139 -20.229761 1352.941487 -7.612 -7.612 0.000000 3.337687 0.000 0 0.000
38401.00 1199.19 100.138999 0.0000000000000000 0.000000 237.735966 -1192636.443285 30.004537 123.628758 -20.236881 1352.886931 -7.617 -7.617 0.000000 3.337462 0.000 0 0.000
38301.00 1199.02 100.138999 0.0000000000000000 0.000000 237.735966 -1192936.498776 30.006562 123.634378 -20.244007 1352.832549 -7.623 -7.623 0.000000 3.337237 0.000 0 0.000
38201.00 1198.84 100.138999 0.0000000000000000 0.000000 237.735966 -1193236.574531 30.008589 123.639998 -20.251139 1352.778343 -7.628 -7.628 0.000000 3.337011 0.000 0 0.000
38101.00 1198.67 100.138999 0.0000000000000000 0.000000 237.735966 -1193536.670573 30.010619 123.645618 -20.258277 1352.724314 -7.633 -7.633 0.000000 3.336785 0.000 0 0.000
38001.00 1198.49 100.138999 0.0000000000000000 0.000000 237.735966 -1193836.786928 30.012652 123.651239 -20.265422 1352.670465 -7.638 -7.638 0.000000 3.336559 0.000 0 0.000
37901.00 1198.32 100.138999 0.0000000000000000 0.000000 237.735966 -1194136.923622 30.014687 123.656861 -20.272572 1352.616797 -7.644 -7.644 0.000000 3.336333 0.000 0 0.000
37801.00 1198.14 100.138999 0.0000000000000000 0.000000 237.735966 -1194437.080679 30.016725 123.662484 -20.279729 1352.563313 -7.649 -7.649 0.000000 3.336107 0.000 0 0.000
37701.00 1197.97 100.138999 0.0000000000000000 0.000000 237.735966 -1194737.258127 30.018765 123.668107 -20.286892 1352.510013 -7.654 -7.654 0.000000 3.335880 0.000 0 0.000
37601.00 1197.79 100.138999 0.0000000000000000 0.000000 237.735966 -1195037.455991 30.020808 123.673731 -20.294061 1352.456899 -7.660 -7.660 0.000000 3.335653 0.000 0 0.000
37501.00 1197.62 100.138999 0.0000000000000000 0.000000 237.735966 -1195337.674297 30.022854 123.679355 -20.301237 1352.403975 -7.665 -7.665 0.000000 3.335426 0.000 0 0.000
37401.00 1197.44 100.138999 0.0000000000000000 0.000000 237.735966 -1195637.913072 30.024902 123.684981 -20.308419 1352.351241 -7.671 -7.671 0.000000 3.335198 0.000 0 0.000
37301.00 1197.27 100.138999 0.0000000000000000 0.000000 237.735966 -1195938.172343 30.026953 123.690607 -20.315608 1352.298699 -7.676 -7.676 0.000000 3.334970 0.000 0 0.000
37201.00 1197.09 100.138999 0.0000000000000000 0.000000 237.735966 -1196238.452136 30.029006 123.696234 -20.322803 1352.246352 -7.681 -7.681 0.000000 3.334742 0.000 0 0.000
37101.00 1196.92 100.138999 0.0000000000000000 0.000000 237.735966 -1196538.752480 30.031063 123.701862 -20.330006 1352.194201 -7.687 -7.687 0.000000 3.334514 0.000 0 0.000
37001.00 1196.74 100.138999 0.0000000000000000 0.000000 237.735966 -1196839.073400 30.033122 123.707491 -20.337215 1352.142249 -7.692 -7.692 0.000000 3.334285 0.000 0 0.000
36901.00 1196.57 100.138999 0.0000000000000000 0.000000 237.735966 -1197139.414926 30.035184 123.713121 -20.344431 1352.090497 -7.698 -7.698 0.000000 3.334056 0.000 0 0.000
36801.00 1196.39 100.138999 0.0000000000000000 0.000000 237.735966 -1197439.777084 30.037248 123.718752 -20.351653 1352.038948 -7.703 -7.703 0.000000 3.333827 0.000 0 0.000
36701.00 1196.22 100.138999 0.0000000000000000 0.000000 237.735966 -1197740.159903 30.039316 123.724383 -20.358883 1351.987604 -7.709 -7.709 0.000000 3.333598 0.000 0 0.000
36601.00 1196.04 100.138999 0.0000000000000000 0.000000 237.735966 -1198040.563412 30.041386 123.730016 -20.366120 1351.936467 -7.714 -7.714 0.000000 3.333368 0.000 0 0.000
36501.00 1195.87 100.138999 0.0000000000000000 0.000000 237.735966 -1198340.987638 30.043459 123.735650 -20.373364 1351.885539 -7.720 -7.720 0.000000 3.333138 0.000 0 0.000
36401.00 1195.69 100.138999 0.0000000000000000 0.000000 237.735966 -1198641.432611 30.045536 123.741285 -20.380615 1351.834823 -7.726 -7.726 0.000000 3.332908 0.000 0 0.000
36301.00 1195.52 100.138999 0.0000000000000000 0.000000 237.735966 -1198941.898360 30.047615 123.746921 -20.387874 1351.784320 -7.731 -7.731 0.000000 3.332677 0.000 0 0.000
36201.00 1195.34 100.138999 0.0000000000000000 0.000000 237.735966 -1199242.384914 30.049697 123.752558 -20.395140 1351.734034 -7.737 -7.737 0.000000 3.332446 0.000 0 0.000
36101.00 1195.17 100.138999 0.0000000000000000 0.000000 237.735966 -1199542.892303 30.051782 123.758197 -20.402413 1351.683966 -7.742 -7.742 0.000000 3.332215 0.000 0 0.000
36001.00 1194.99 100.138999 0.0000000000000000 0.000000 237.735966 -1199843.420557 30.053870 123.763837 -20.409694 1351.634119 -7.748 -7.748 0.000000 3.331984 0.000 0 0.000
35901.00 1194.82 100.138999 0.0000000000000000 0.000000 237.735966 -1200143.969705 30.055961 123.769478 -20.416983 1351.584496 -7.754 -7.754 0.000000 3.331752 0.000 0 0.000
35801.00 1194.64 100.138999 0.0000000000000000 0.000000 237.735966 -1200444.539779 30.058055 123.775120 -20.424279 1351.535099 -7.759 -7.759 0.000000 3.331520 0.000 0 0.000
35701.00 1194.46 100.138999 0.0000000000000000 0.000000 237.735966 -1200745.130809 30.060152 123.780763 -20.431583 1351.485929 -7.765 -7.765 0.000000 3.331287 0.000 0 0.000
35601.00 1194.29 100.138999 0.0000000000000000 0.000000 237.735966 -1201045.742826 30.062252 123.786409 -20.438895 1351.436991 -7.771 -7.771 0.000000 3.331054 0.000 0 0.000
35501.00 1194.11 100.138999 0.0000000000000000 0.000000 237.735966 -1201346.375862 30.064356 123.792055 -20.446215 1351.388287 -7.776 -7.776 0.000000 3.330821 0.000 0 0.000
35401.00 1193.94 100.138999 0.0000000000000000 0.000000 237.735966 -1201647.029947 30.066462 123.797703 -20.453543 1351.339819 -7.782 -7.782 0.000000 3.330588 0.000 0 0.000
35301.00 1193.76 100.138999 0.0000000000000000 0.000000 237.735966 -1201947.705115 30.068572 123.803352 -20.460880 1351.291589 -7.788 -7.788 0.000000 3.330354 0.000 0 0.000
35201.00 1193.59 100.138999 0.0000000000000000 0.000000 237.735966 -1202248.401396 30.070685 123.809003 -20.468224 1351.243602 -7.794 -7.794 0.000000 3.330120 0.000 0 0.000
35101.00 1193.41 100.138999 0.0000000000000000 0.000000 237.735966 -1202549.118825 30.072801 123.814656 -20.475577 1351.195859 -7.799 -7.799 0.000000 3.329886 0.000 0 0.000
35001.00 1193.23 100.138999 0.0000000000000000 0.000000 237.735966 -1202849.857432 30.074921 123.820310 -20.482938 1351.148364 -7.805 -7.805 0.000000 3.329651 0.000 0 0.000
34901.00 1193.06 100.138999 0.0000000000000000 0.000000 237.735966 -1203150.617253 30.077044 123.825966 -20.490308 1351.101119 -7.811 -7.811 0.000000 3.329416 0.000 0 0.000
34801.00 1192.88 100.138999 0.0000000000000000 0.000000 237.735966 -1203451.398319 30.079170 123.831624 -20.497687 1351.054127 -7.817 -7.817 0.000000 3.329181 0.000 0 0.000
34701.00 1192.71 100.138999 0.0000000000000000 0.000000 237.735966 -1203752.200666 30.081300 123.837284 -20.505075 1351.007392 -7.823 -7.823 0.000000 3.328945 0.000 0 0.000
34601.00 1192.53 100.138999 0.0000000000000000 0.000000 237.735966 -1204053.024326 30.083433 123.842945 -20.512471 1350.960916 -7.829 -7.829 0.000000 3.328709 0.000 0 0.000
34501.00 1192.35 100.138999 0.0000000000000000 0.000000 237.735966 -1204353.869335 30.085570 123.848608 -20.519876 1350.914703 -7.834 -7.834 0.000000 3.328473 0.000 0 0.000
34401.00 1192.18 100.138999 0.0000000000000000 0.000000 237.735966 -1204654.735728 30.087710 123.854274 -20.527290 1350.868755 -7.840 -7.840 0.000000 3.328236 0.000 0 0.000
34301.00 1192.00 100.138999 0.0000000000000000 0.000000 237.735966 -1204955.623540 30.089853 123.859941 -20.534714 1350.823077 -7.846 -7.846 0.000000 3.327999 0.000 0 0.000
34201.00 1191.82 100.138999 0.0000000000000000 0.000000 237.735966 -1205256.532806 30.092001 123.865610 -20.542147 1350.777671 -7.852 -7.852 0.000000 3.327761 0.000 0 0.000
34101.00 1191.65 100.138999 0.0000000000000000 0.000000 237.735966 -1205557.463562 30.094151 123.871282 -20.549589 1350.732541 -7.858 -7.858 0.000000 3.327524 0.000 0 0.000
34001.00 1191.47 100.138999 0.0000000000000000 0.000000 237.735966 -1205858.415845 30.096306 123.876955 -20.557041 1350.687689 -7.864 -7.864 0.000000 3.327285 0.000 0 0.000
33901.00 1191.29 100.138999 0.0000000000000000 0.000000 237.735966 -1206159.389692 30.098464 123.882631 -20.564502 1350.643121 -7.870 -7.870 0.000000 3.327047 0.000 0 0.000
33801.00 1191.12 100.138999 0.0000000000000000 0.000000 237.735966 -1206460.385139 30.100626 123.888309 -20.571974 1350.598839 -7.876 -7.876 0.000000 3.326808 0.000 0 0.000
33701.00 1190.94 100.138999 0.0000000000000000 0.000000 237.735966 -1206761.402225 30.102792 123.893989 -20.579455 1350.554847 -7.882 -7.882 0.000000 3.326569 0.000 0 0.000
33601.00 1190.76 100.138999 0.0000000000000000 0.000000 237.735966 -1207062.440986 30.104961 123.899672 -20.586946 1350.511148 -7.888 -7.888 0.000000 3.326329 0.000 0 0.000
33501.00 1190.59 100.138999 0.0000000000000000 0.000000 237.735966 -1207363.501462 30.107135 123.905357 -20.594447 1350.467747 -7.895 -7.895 0.000000 3.326089 0.000 0 0.000
33401.00 1190.41 100.138999 0.0000000000000000 0.000000 237.735966 -1207664.583692 30.109312 123.911045 -20.601959 1350.424647 -7.901 -7.901 0.000000 3.325848 0.000 0 0.000
33301.00 1190.23 100.138999 0.0000000000000000 0.000000 237.735966 -1207965.687714 30.111493 123.916736 -20.609481 1350.381853 -7.907 -7.907 0.000000 3.325607 0.000 0 0.000
33201.00 1190.05 100.138999 0.0000000000000000 0.000000 237.735966 -1208266.813568 30.113678 123.922429 -20.617013 1350.339367 -7.913 -7.913 0.000000 3.325366 0.000 0 0.000
33101.00 1189.88 100.138999 0.0000000000000000 0.000000 237.735966 -1208567.961294 30.115868 123.928124 -20.624556 1350.297195 -7.919 -7.919 0.000000 3.325124 0.000 0 0.000
33001.00 1189.70 100.138999 0.0000000000000000 0.000000 237.735966 -1208869.130934 30.118061 123.933823 -20.632110 1350.255341 -7.925 -7.925 0.000000 3.324882 0.000 0 0.000
32901.00 1189.52 100.138999 0.0000000000000000 0.000000 237.735966 -1209170.322528 30.120258 123.939524 -20.639675 1350.213808 -7.932 -7.932 0.000000 3.324639 0.000 0 0.000
32801.00 1189.35 100.138999 0.0000000000000000 0.000000 237.735966 -1209471.536118 30.122460 123.945229 -20.647251 1350.172602 -7.938 -7.938 0.000000 3.324396 0.000 0 0.000
