Title: Depleted MORB Mantle of Workmann & Hart 2005

System Thermodynamic Data:
Pressure Temperature mass F phi S H V Cp dVdP*10^6 dVdT*10^6 fO2(absolute) fO2(absolute) rhol rhos viscosity aH2O chisqr
44001.00 1461.84 100.138999 0.0000000000000000 0.000000 257.686797 -1143830.736397 30.287094 125.326108 -19.922769 1474.238894 -5.572 -5.572 0.000000 3.306326 0.000 0 0.000
43901.00 1461.62 100.138999 0.0000000000000000 0.000000 257.686797 -1144133.617107 30.289048 125.333223 -19.929955 1474.168038 -5.577 -5.577 0.000000 3.306112 0.000 0 0.000
43801.00 1461.39 100.138999 0.0000000000000000 0.000000 257.686797 -1144436.517371 30.291005 125.340339 -19.937147 1474.097373 -5.582 -5.582 0.000000 3.305899 0.000 0 0.000
43701.00 1461.17 100.138999 0.0000000000000000 0.000000 257.686797 -1144739.437215 30.292964 125.347455 -19.944345 1474.026901 -5.587 -5.587 0.000000 3.305685 0.000 0 0.000
43601.00 1460.95 100.138999 0.0000000000000000 0.000000 257.686797 -1145042.376667 30.294926 125.354573 -19.951549 1473.956624 -5.592 -5.592 0.000000 3.305471 0.000 0 0.000
43501.00 1460.72 100.138999 0.0000000000000000 0.000000 257.686797 -1145345.335754 30.296891 125.361692 -19.958760 1473.886544 -5.597 -5.597 0.000000 3.305257 0.000 0 0.000
43401.00 1460.50 100.138999 0.0000000000000000 0.000000 257.686797 -1145648.314504 30.298859 125.368811 -19.965976 1473.816662 -5.602 -5.602 0.000000 3.305042 0.000 0 0.000
43301.00 1460.28 100.138999 0.0000000000000000 0.000000 257.686797 -1145951.312943 30.300829 125.375932 -19.973199 1473.746981 -5.607 -5.607 0.000000 3.304827 0.000 0 0.000
43201.00 1460.05 100.138999 0.0000000000000000 0.000000 257.686797 -1146254.331100 30.302803 125.383053 -19.980429 1473.677502 -5.612 -5.612 0.000000 3.304612 0.000 0 0.000
43101.00 1459.83 100.138999 0.0000000000000000 0.000000 257.686797 -1146557.369004 30.304779 125.390176 -19.987664 1473.608227 -5.617 -5.617 0.000000 3.304396 0.000 0 0.000
43001.00 1459.61 100.138999 0.0000000000000000 0.000000 257.686797 -1146860.426681 30.306757 125.397300 -19.994907 1473.539159 -5.622 -5.622 0.000000 3.304181 0.000 0 0.000
42901.00 1459.38 100.138999 0.0000000000000000 0.000000 257.686797 -1147163.504161 30.308739 125.404425 -20.002155 1473.470298 -5.627 -5.627 0.000000 3.303965 0.000 0 0.000
42801.00 1459.16 100.138999 0.0000000000000000 0.000000 257.686797 -1147466.601473 30.310724 125.411551 -20.009411 1473.401647 -5.632 -5.632 0.000000 3.303748 0.000 0 0.000
42701.00 1458.94 100.138999 0.0000000000000000 0.000000 257.686797 -1147769.718645 30.312711 125.418678 -20.016673 1473.333208 -5.637 -5.637 0.000000 3.303532 0.000 0 0.000
42601.00 1458.71 100.138999 0.0000000000000000 0.000000 257.686797 -1148072.855707 30.314702 125.425806 -20.023942 1473.264983 -5.642 -5.642 0.000000 3.303315 0.000 0 0.000
42501.00 1458.49 100.138999 0.0000000000000000 0.000000 257.686797 -1148376.012688 30.316695 125.432936 -20.031218 1473.196974 -5.647 -5.647 0.000000 3.303097 0.000 0 0.000
42401.00 1458.26 100.138999 0.0000000000000000 0.000000 257.686797 -1148679.189617 30.318691 125.440067 -20.038500 1473.129183 -5.652 -5.652 0.000000 3.302880 0.000 0 0.000
42301.00 1458.04 100.138999 0.0000000000000000 0.000000 257.686797 -1148982.386525 30.320691 125.447199 -20.045790 1473.061612 -5.657 -5.657 0.000000 3.302662 0.000 0 0.000
42201.00 1457.82 100.138999 0.0000000000000000 0.000000 257.686797 -1149285.603441 30.322693 125.454333 -20.053087 1472.994263 -5.662 -5.662 0.000000 3.302444 0.000 0 0.000
42101.00 1457.59 100.138999 0.0000000000000000 0.000000 257.686797 -1149588.840396 30.324698 125.461468 -20.060390 1472.927139 -5.668 -5.668 0.000000 3.302226 0.000 0 0.000
42001.00 1457.37 100.138999 0.0000000000000000 0.000000 257.686797 -1149892.097420 30.326707 125.468605 -20.067701 1472.860242 -5.673 -5.673 0.000000 3.302007 0.000 0 0.000
41901.00 1457.14 100.138999 0.0000000000000000 0.000000 257.686797 -1150195.374544 30.328718 125.475743 -20.075019 1472.793573 -5.678 -5.678 0.000000 3.301788 0.000 0 0.000
41801.00 1456.92 100.138999 0.0000000000000000 0.000000 257.686797 -1150498.671800 30.330733 125.482882 -20.082345 1472.727135 -5.683 -5.683 0.000000 3.301569 0.000 0 0.000
41701.00 1456.70 100.138999 0.0000000000000000 0.000000 257.686797 -1150801.989218 30.332751 125.490024 -20.089678 1472.660931 -5.688 -5.688 0.000000 3.301349 0.000 0 0.000
41601.00 1456.47 100.138999 0.0000000000000000 0.000000 257.686797 -1151105.326830 30.334772 125.497166 -20.097018 1472.594963 -5.694 -5.694 0.000000 3.301129 0.000 0 0.000
41501.00 1456.25 100.138999 0.0000000000000000 0.000000 257.686797 -1151408.684667 30.336796 125.504311 -20.104366 1472.529233 -5.699 -5.699 0.000000 3.300909 0.000 0 0.000
41401.00 1456.02 100.138999 0.0000000000000000 0.000000 257.686797 -1151712.062763 30.338824 125.511457 -20.111721 1472.463744 -5.704 -5.704 0.000000 3.300688 0.000 0 0.000
41301.00 1455.80 100.138999 0.0000000000000000 0.000000 257.686797 -1152015.461149 30.340854 125.518604 -20.119084 1472.398497 -5.709 -5.709 0.000000 3.300467 0.000 0 0.000
41201.00 1455.57 100.138999 0.0000000000000000 0.000000 257.686797 -1152318.879857 30.342888 125.525754 -20.126455 1472.333496 -5.715 -5.715 0.000000 3.300246 0.000 0 0.000
41101.00 1455.35 100.138999 0.0000000000000000 0.000000 257.686797 -1152622.318922 30.344925 125.532905 -20.133834 1472.268743 -5.720 -5.720 0.000000 3.300025 0.000 0 0.000
41001.00 1455.12 100.138999 0.0000000000000000 0.000000 257.686797 -1152925.778375 30.346966 125.540059 -20.141221 1472.204241 -5.725 -5.725 0.000000 3.299803 0.000 0 0.000
40901.00 1454.90 100.138999 0.0000000000000000 0.000000 257.686797 -1153229.258251 30.349010 125.547214 -20.148615 1472.139992 -5.731 -5.731 0.000000 3.299580 0.000 0 0.000
40801.00 1454.67 100.138999 0.0000000000000000 0.000000 257.686797 -1153532.758583 30.351057 125.554371 -20.156018 1472.075999 -5.736 -5.736 0.000000 3.299358 0.000 0 0.000
40701.00 1454.45 100.138999 0.0000000000000000 0.000000 257.686797 -1153836.279404 30.353108 125.561530 -20.163429 1472.012264 -5.741 -5.741 0.000000 3.299135 0.000 0 0.000
40601.00 1454.22 100.138999 0.0000000000000000 0.000000 257.686797 -1154139.820751 30.355162 125.568691 -20.170848 1471.948791 -5.747 -5.747 0.000000 3.298912 0.000 0 0.000
40501.00 1454.00 100.138999 0.0000000000000000 0.000000 257.686797 -1154443.382656 30.357220 125.575854 -20.178276 1471.885581 -5.752 -5.752 0.000000 3.298688 0.000 0 0.000
40401.00 1453.77 100.138999 0.0000000000000000 0.000000 257.686797 -1154746.965156 30.359281 125.583019 -20.185712 1471.822639 -5.758 -5.758 0.000000 3.298464 0.000 0 0.000
40301.00 1453.55 100.138999 0.0000000000000000 0.000000 257.686797 -1155050.568285 30.361346 125.590187 -20.193157 1471.759966 -5.763 -5.763 0.000000 3.298240 0.000 0 0.000
40201.00 1453.32 100.138999 0.0000000000000000 0.000000 257.686797 -1155354.192078 30.363414 125.597357 -20.200610 1471.697566 -5.769 -5.769 0.000000 3.298015 0.000 0 0.000
40101.00 1453.10 100.138999 0.0000000000000000 0.000000 257.686797 -1155657.836573 30.365486 125.604529 -20.208072 1471.635442 -5.774 -5.774 0.000000 3.297790 0.000 0 0.000
40001.00 1452.87 100.138999 0.0000000000000000 0.000000 257.686797 -1155961.501804 30.367561 125.611703 -20.215543 1471.573597 -5.780 -5.780 0.000000 3.297565 0.000 0 0.000
39901.00 1452.65 100.138999 0.0000000000000000 0.000000 257.686797 -1156265.187809 30.369640 125.618880 -20.223022 1471.512033 -5.785 -5.785 0.000000 3.297339 0.000 0 0.000
39801.00 1452.42 100.138999 0.0000000000000000 0.000000 257.686797 -1156568.894625 30.371723 125.626059 -20.230511 1471.450754 -5.791 -5.791 0.000000 3.297113 0.000 0 0.000
39701.00 1452.20 100.138999 0.0000000000000000 0.000000 257.686797 -1156872.622288 30.373810 125.633240 -20.238009 1471.389763 -5.796 -5.796 0.000000 3.296886 0.000 0 0.000
39601.00 1451.97 100.138999 0.0000000000000000 0.000000 257.686797 -1157176.370836 30.375900 125.640425 -20.245516 1471.329063 -5.802 -5.802 0.000000 3.296659 0.000 0 0.000
39501.00 1451.74 100.138999 0.0000000000000000 0.000000 257.686797 -1157480.140308 30.377995 125.647611 -20.253032 1471.268657 -5.807 -5.807 0.000000 3.296432 0.000 0 0.000
39401.00 1451.52 100.138999 0.0000000000000000 0.000000 257.686797 -1157783.930741 30.380093 125.654801 -20.260558 1471.208550 -5.813 -5.813 0.000000 3.296205 0.000 0 0.000
39301.00 1451.29 100.138999 0.0000000000000000 0.000000 257.686797 -1158087.742174 30.382195 125.661993 -20.268093 1471.148744 -5.819 -5.819 0.000000 3.295976 0.000 0 0.000
39201.00 1451.07 100.138999 0.0000000000000000 0.000000 257.686797 -1158391.574646 30.384300 125.669188 -20.275638 1471.089242 -5.824 -5.824 0.000000 3.295748 0.000 0 0.000
39101.00 1450.84 100.138999 0.0000000000000000 0.000000 257.686797 -1158695.428197 30.386410 125.676386 -20.283192 1471.030048 -5.830 -5.830 0.000000 3.295519 0.000 0 0.000
39001.00 1450.61 100.138999 0.0000000000000000 0.000000 257.686797 -1158999.302866 30.388524 125.683587 -20.290757 1470.971167 -5.836 -5.836 0.000000 3.295290 0.000 0 0.000
38901.00 1450.39 100.138999 0.0000000000000000 0.000000 257.686797 -1159303.198694 30.390642 125.690790 -20.298331 1470.912600 -5.841 -5.841 0.000000 3.295060 0.000 0 0.000
38801.00 1450.16 100.138999 0.0000000000000000 0.000000 257.686797 -1159607.115721 30.392764 125.697997 -20.305916 1470.854353 -5.847 -5.847 0.000000 3.294830 0.000 0 0.000
38701.00 1449.93 100.138999 0.0000000000000000 0.000000 257.686797 -1159911.053988 30.394890 125.705207 -20.313510 1470.796428 -5.853 -5.853 0.000000 3.294600 0.000 0 0.000
38601.00 1449.71 100.138999 0.0000000000000000 0.000000 257.686797 -1160215.013537 30.397020 125.712420 -20.321115 1470.738830 -5.859 -5.859 0.000000 3.294369 0.000 0 0.000
38501.00 1449.48 100.138999 0.0000000000000000 0.000000 257.686797 -1160518.994409 30.399155 125.719636 -20.328730 1470.681562 -5.864 -5.864 0.000000 3.294138 0.000 0 0.000
38401.00 1449.25 100.138999 0.0000000000000000 0.000000 257.686797 -1160822.996647 30.401293 125.726856 -20.336356 1470.624629 -5.870 -5.870 0.000000 3.293906 0.000 0 0.000
38301.00 1449.03 100.138999 0.0000000000000000 0.000000 257.686797 -1161127.020293 30.403436 125.734079 -20.343993 1470.568035 -5.876 -5.876 0.000000 3.293674 0.000 0 0.000
38201.00 1448.80 100.138999 0.0000000000000000 0.000000 257.686797 -1161431.065391 30.405584 125.741305 -20.351640 1470.511783 -5.882 -5.882 0.000000 3.293441 0.000 0 0.000
38101.00 1448.57 100.138999 0.0000000000000000 0.000000 257.686797 -1161735.131983 30.407735 125.748535 -20.359298 1470.455877 -5.888 -5.888 0.000000 3.293208 0.000 0 0.000
38001.00 1448.35 100.138999 0.0000000000000000 0.000000 257.686797 -1162039.220115 30.409892 125.755768 -20.366967 1470.400323 -5.894 -5.894 0.000000 3.292975 0.000 0 0.000
37901.00 1448.12 100.138999 0.0000000000000000 0.000000 257.686797 -1162343.329830 30.412052 125.763005 -20.374648 1470.345124 -5.900 -5.900 0.000000 3.292741 0.000 0 0.000
37801.00 1447.89 100.138999 0.0000000000000000 0.000000 257.686797 -1162647.461174 30.414217 125.770246 -20.382340 1470.290285 -5.906 -5.906 0.000000 3.292506 0.000 0 0.000
37701.00 1447.66 100.138999 0.0000000000000000 0.000000 257.686797 -1162951.614192 30.416387 125.777491 -20.390043 1470.235809 -5.911 -5.911 0.000000 3.292271 0.000 0 0.000
37601.00 1447.44 100.138999 0.0000000000000000 0.000000 257.686797 -1163255.788930 30.418561 125.784740 -20.397757 1470.181703 -5.917 -5.917 0.000000 3.292036 0.000 0 0.000
37501.00 1447.21 100.138999 0.0000000000000000 0.000000 257.686797 -1163559.985434 30.420740 125.791992 -20.405484 1470.127970 -5.923 -5.923 0.000000 3.291800 0.000 0 0.000
37401.00 1446.98 100.138999 0.0000000000000000 0.000000 257.686797 -1163864.203751 30.422924 125.799249 -20.413222 1470.074615 -5.929 -5.929 0.000000 3.291564 0.000 0 0.000
37301.00 1446.75 100.138999 0.0000000000000000 0.000000 257.686797 -1164168.443929 30.425112 125.806510 -20.420972 1470.021644 -5.936 -5.936 0.000000 3.291327 0.000 0 0.000
37201.00 1446.52 100.138999 0.0000000000000000 0.000000 257.686797 -1164472.706016 30.427306 125.813774 -20.428735 1469.969060 -5.942 -5.942 0.000000 3.291090 0.000 0 0.000
37101.00 1446.30 100.138999 0.0000000000000000 0.000000 257.686797 -1164776.990060 30.429504 125.821044 -20.436510 1469.916869 -5.948 -5.948 0.000000 3.290852 0.000 0 0.000
37001.00 1446.07 100.138999 0.0000000000000000 0.000000 257.686797 -1165081.296110 30.431707 125.828318 -20.444297 1469.865076 -5.954 -5.954 0.000000 3.290614 0.000 0 0.000
36901.00 1445.84 100.138999 0.0000000000000000 0.000000 257.686797 -1165385.624217 30.433915 125.835596 -20.452097 1469.813686 -5.960 -5.960 0.000000 3.290375 0.000 0 0.000
36801.00 1445.61 100.138999 0.0000000000000000 0.000000 257.686797 -1165689.974429 30.436128 125.842879 -20.459909 1469.762705 -5.966 -5.966 0.000000 3.290136 0.000 0 0.000
36701.00 1445.38 100.138999 0.0000000000000000 0.000000 257.686797 -1165994.346799 30.438347 125.850166 -20.467735 1469.712138 -5.972 -5.972 0.000000 3.289896 0.000 0 0.000
36601.00 1445.15 100.138999 0.0000000000000000 0.000000 257.686797 -1166298.741377 30.440570 125.857458 -20.475574 1469.661990 -5.979 -5.979 0.000000 3.289656 0.000 0 0.000
36501.00 1444.92 100.138999 0.0000000000000000 0.000000 257.686797 -1166603.158215 30.442799 125.864756 -20.483426 1469.612267 -5.985 -5.985 0.000000 3.289415 0.000 0 0.000
36401.00 1444.70 100.138999 0.0000000000000000 0.000000 257.686797 -1166907.597366 30.445033 125.872058 -20.491291 1469.562975 -5.991 -5.991 0.000000 3.289174 0.000 0 0.000
36301.00 1444.47 100.138999 0.0000000000000000 0.000000 257.686797 -1167212.058883 30.447272 125.879365 -20.499170 1469.514120 -5.997 -5.997 0.000000 3.288932 0.000 0 0.000
36201.00 1444.24 100.138999 0.0000000000000000 0.000000 257.686797 -1167516.542819 30.449516 125.886677 -20.507063 1469.465707 -6.004 -6.004 0.000000 3.288689 0.000 0 0.000
36101.00 1444.01 100.138999 0.0000000000000000 0.000000 257.686797 -1167821.049231 30.451767 125.893995 -20.514969 1469.417743 -6.010 -6.010 0.000000 3.288446 0.000 0 0.000
36001.00 1443.78 100.138999 0.0000000000000000 0.000000 257.686797 -1168125.578171 30.454022 125.901318 -20.522890 1469.370233 -6.016 -6.016 0.000000 3.288203 0.000 0 0.000
35901.00 1443.55 100.138999 0.0000000000000000 0.000000 257.686797 -1168430.129697 30.456284 125.908647 -20.530825 1469.323185 -6.023 -6.023 0.000000 3.287959 0.000 0 0.000
35801.00 1443.32 100.138999 0.0000000000000000 0.000000 257.686797 -1168734.703865 30.458551 125.915981 -20.538775 1469.276605 -6.029 -6.029 0.000000 3.287714 0.000 0 0.000
35701.00 1443.09 100.138999 0.0000000000000000 0.000000 257.686797 -1169039.300731 30.460824 125.923321 -20.546740 1469.230498 -6.036 -6.036 0.000000 3.287469 0.000 0 0.000
35601.00 1442.86 100.138999 0.0000000000000000 0.000000 257.686797 -1169343.920355 30.463102 125.930667 -20.554719 1469.184873 -6.042 -6.042 0.000000 3.287223 0.000 0 0.000
35501.00 1442.63 100.138999 0.0000000000000000 0.000000 257.686797 -1169648.562794 30.465387 125.938019 -20.562713 1469.139735 -6.048 -6.048 0.000000 3.286976 0.000 0 0.000
35401.00 1442.40 100.138999 0.0000000000000000 0.000000 257.686797 -1169953.228107 30.467677 125.945377 -20.570723 1469.095091 -6.055 -6.055 0.000000 3.286729 0.000 0 0.000
35301.00 1442.17 100.138999 0.0000000000000000 0.000000 257.686797 -1170257.916356 30.469974 125.952741 -20.578749 1469.050950 -6.062 -6.062 0.000000 3.286481 0.000 0 0.000
35201.00 1441.94 100.138999 0.0000000000000000 0.000000 257.686797 -1170562.627600 30.472276 125.960112 -20.586790 1469.007318 -6.068 -6.068 0.000000 3.286233 0.000 0 0.000
35101.00 1441.70 100.138999 0.0000000000000000 0.000000 257.686797 -1170867.361902 30.474585 125.967489 -20.594847 1468.964202 -6.075 -6.075 0.000000 3.285984 0.000 0 0.000
35001.00 1441.47 100.138999 0.0000000000000000 0.000000 257.686797 -1171172.119324 30.476900 125.974873 -20.602920 1468.921610 -6.081 -6.081 0.000000 3.285734 0.000 0 0.000
34901.00 1441.24 100.138999 0.0000000000000000 0.000000 257.686797 -1171476.899929 30.479222 125.982263 -20.611010 1468.879550 -6.088 -6.088 0.000000 3.285484 0.000 0 0.000
34801.00 1441.01 100.138999 0.0000000000000000 0.000000 257.686797 -1171781.703782 30.481550 125.989661 -20.619116 1468.838030 -6.095 -6.095 0.000000 3.285233 0.000 0 0.000
34701.00 1440.78 100.138999 0.0000000000000000 0.000000 257.686797 -1172086.530947 30.483884 125.997065 -20.627239 1468.797057 -6.101 -6.101 0.000000 3.284982 0.000 0 0.000
34601.00 1440.55 100.138999 0.0000000000000000 0.000000 257.686797 -1172391.381490 30.486225 126.004477 -20.635379 1468.756640 -6.108 -6.108 0.000000 3.284729 0.000 0 0.000
34501.00 1440.32 100.138999 0.0000000000000000 0.000000 257.686797 -1172696.255478 30.488573 126.011896 -20.643537 1468.716788 -6.115 -6.115 0.000000 3.284476 0.000 0 0.000
34401.00 1440.08 100.138999 0.0000000000000000 0.000000 257.686797 -1173001.152978 30.490928 126.019322 -20.651712 1468.677509 -6.122 -6.122 0.000000 3.284223 0.000 0 0.000
34301.00 1439.85 100.138999 0.0000000000000000 0.000000 257.686797 -1173306.074060 30.493290 126.026756 -20.659905 1468.638811 -6.129 -6.129 0.000000 3.283968 0.000 0 0.000
34201.00 1439.62 100.138999 0.0000000000000000 0.000000 257.686797 -1173611.018793 30.495658 126.034198 -20.668116 1468.600704 -6.135 -6.135 0.000000 3.283713 0.000 0 0.000
34101.00 1439.39 100.138999 0.0000000000000000 0.000000 257.686797 -1173915.987246 30.498034 126.041648 -20.676346 1468.563197 -6.142 -6.142 0.000000 3.283458 0.000 0 0.000
34001.00 1439.15 100.138999 0.0000000000000000 0.000000 257.686797 -1174220.979492 30.500417 126.049106 -20.684594 1468.526299 -6.149 -6.149 0.000000 3.283201 0.000 0 0.000
33901.00 1438.92 100.138999 0.0000000000000000 0.000000 257.686797 -1174525.995604 30.502807 126.056573 -20.692861 1468.490020 -6.156 -6.156 0.000000 3.282944 0.000 0 0.000
33801.00 1438.69 100.138999 0.0000000000000000 0.000000 257.686797 -1174831.035654 30.505204 126.064048 -20.701147 1468.454369 -6.163 -6.163 0.000000 3.282686 0.000 0 0.000
33701.00 1438.45 100.138999 0.0000000000000000 0.000000 257.686797 -1175136.099716 30.507609 126.071531 -20.709453 1468.419357 -6.170 -6.170 0.000000 3.282427 0.000 0 0.000
33601.00 1438.22 100.138999 0.0000000000000000 0.000000 257.686797 -1175441.187868 30.510022 126.079023 -20.717778 1468.384993 -6.177 -6.177 0.000000 3.282167 0.000 0 0.000
33501.00 1437.99 100.138999 0.0000000000000000 0.000000 257.686797 -1175746.300185 30.512443 126.086525 -20.726124 1468.351289 -6.184 -6.184 0.000000 3.281907 0.000 0 0.000
33401.00 1437.75 100.138999 0.0000000000000000 0.000000 257.686797 -1176051.436745 30.514871 126.094035 -20.734490 1468.318254 -6.191 -6.191 0.000000 3.281646 0.000 0 0.000
33301.00 1437.52 100.138999 0.0000000000000000 0.000000 257.686797 -1176356.597627 30.517307 126.101555 -20.742876 1468.285900 -6.199 -6.199 0.000000 3.281384 0.000 0 0.000
33201.00 1437.28 100.138999 0.0000000000000000 0.000000 257.686797 -1176661.782912 30.519751 126.109085 -20.751284 1468.254237 -6.206 -6.206 0.000000 3.281121 0.000 0 0.000
33101.00 1437.05 100.138999 0.0000000000000000 0.000000 257.686797 -1176966.992680 30.522204 126.116624 -20.759713 1468.223278 -6.213 -6.213 0.000000 3.280857 0.000 0 0.000
33001.00 1436.81 100.138999 0.0000000000000000 0.000000 257.686797 -1177272.227014 30.524665 126.124174 -20.768164 1468.193033 -6.220 -6.220 0.000000 3.280593 0.000 0 0.000
32901.00 1436.58 100.138999 0.0000000000000000 0.000000 257.686797 -1177577.485998 30.527134 126.131734 -20.776636 1468.163515 -6.228 -6.228 0.000000 3.280328 0.000 0 0.000
32801.00 1436.34 100.138999 0.0000000000000000 0.000000 257.686797 -1177882.769717 30.529612 126.139304 -20.785131 1468.134736 -6.235 -6.235 0.000000 3.280061 0.000 0 0.000
