Title: Depleted MORB Mantle of Workmann & Hart 2005

Bulk Composition:
Pressure Temperature mass SiO2 TiO2 Al2O3 Fe2O3 Cr2O3 FeO MnO MgO NiO CaO Na2O 
44001.00 1379.39 100.138985 44.6479 0.12982 3.97448 0.190735 0.569209 7.99689 0.12982 38.6762 0.239667 3.1656 0.279611
43901.00 1379.19 100.138985 44.6479 0.12982 3.97448 0.190735 0.569209 7.99689 0.12982 38.6762 0.239667 3.1656 0.279611
43801.00 1378.98 100.138985 44.6479 0.12982 3.97448 0.190735 0.569209 7.99689 0.12982 38.6762 0.239667 3.1656 0.279611
43701.00 1378.77 100.138985 44.6479 0.12982 3.97448 0.190735 0.569209 7.99689 0.12982 38.6762 0.239667 3.1656 0.279611
43601.00 1378.57 100.138985 44.6479 0.12982 3.97448 0.190735 0.569209 7.99689 0.12982 38.6762 0.239667 3.1656 0.279611
43501.00 1378.36 100.138985 44.6479 0.12982 3.97448 0.190735 0.569209 7.99689 0.12982 38.6762 0.239667 3.1656 0.279611
43401.00 1378.16 100.138985 44.6479 0.12982 3.97448 0.190735 0.569209 7.99689 0.12982 38.6762 0.239667 3.1656 0.279611
43301.00 1377.95 100.138985 44.6479 0.12982 3.97448 0.190735 0.569209 7.99689 0.12982 38.6762 0.239667 3.1656 0.279611
43201.00 1377.75 100.138985 44.6479 0.12982 3.97448 0.190735 0.569209 7.99689 0.12982 38.6762 0.239667 3.1656 0.279611
43101.00 1377.54 100.138985 44.6479 0.12982 3.97448 0.190735 0.569209 7.99689 0.12982 38.6762 0.239667 3.1656 0.279611
43001.00 1377.33 100.138985 44.6479 0.12982 3.97448 0.190735 0.569209 7.99689 0.12982 38.6762 0.239667 3.1656 0.279611
42901.00 1377.13 100.138985 44.6479 0.12982 3.97448 0.190735 0.569209 7.99689 0.12982 38.6762 0.239667 3.1656 0.279611
42801.00 1376.92 100.138985 44.6479 0.12982 3.97448 0.190735 0.569209 7.99689 0.12982 38.6762 0.239667 3.1656 0.279611
42701.00 1376.72 100.138985 44.6479 0.12982 3.97448 0.190735 0.569209 7.99689 0.12982 38.6762 0.239667 3.1656 0.279611
42601.00 1376.51 100.138985 44.6479 0.12982 3.97448 0.190735 0.569209 7.99689 0.12982 38.6762 0.239667 3.1656 0.279611
42501.00 1376.30 100.138985 44.6479 0.12982 3.97448 0.190735 0.569209 7.99689 0.12982 38.6762 0.239667 3.1656 0.279611
42401.00 1376.10 100.138985 44.6479 0.12982 3.97448 0.190735 0.569209 7.99689 0.12982 38.6762 0.239667 3.1656 0.279611
42301.00 1375.89 100.138985 44.6479 0.12982 3.97448 0.190735 0.569209 7.99689 0.12982 38.6762 0.239667 3.1656 0.279611
42201.00 1375.69 100.138985 44.6479 0.12982 3.97448 0.190735 0.569209 7.99689 0.12982 38.6762 0.239667 3.1656 0.279611
42101.00 1375.48 100.138985 44.6479 0.12982 3.97448 0.190735 0.569209 7.99689 0.12982 38.6762 0.239667 3.1656 0.279611
42001.00 1375.27 100.138985 44.6479 0.12982 3.97448 0.190735 0.569209 7.99689 0.12982 38.6762 0.239667 3.1656 0.279611
41901.00 1375.07 100.138985 44.6479 0.12982 3.97448 0.190735 0.569209 7.99689 0.12982 38.6762 0.239667 3.1656 0.279611
41801.00 1374.86 100.138985 44.6479 0.12982 3.97448 0.190735 0.569209 7.99689 0.12982 38.6762 0.239667 3.1656 0.279611
41701.00 1374.65 100.138985 44.6479 0.12982 3.97448 0.190735 0.569209 7.99689 0.12982 38.6762 0.239667 3.1656 0.279611
41601.00 1374.45 100.138985 44.6479 0.12982 3.97448 0.190735 0.569209 7.99689 0.12982 38.6762 0.239667 3.1656 0.279611
41501.00 1374.24 100.138985 44.6479 0.12982 3.97448 0.190735 0.569209 7.99689 0.12982 38.6762 0.239667 3.1656 0.279611
41401.00 1374.04 100.138985 44.6479 0.12982 3.97448 0.190735 0.569209 7.99689 0.12982 38.6762 0.239667 3.1656 0.279611
41301.00 1373.83 100.138985 44.6479 0.12982 3.97448 0.190735 0.569209 7.99689 0.12982 38.6762 0.239667 3.1656 0.279611
41201.00 1373.62 100.138985 44.6479 0.12982 3.97448 0.190735 0.569209 7.99689 0.12982 38.6762 0.239667 3.1656 0.279611
41101.00 1373.42 100.138985 44.6479 0.12982 3.97448 0.190735 0.569209 7.99689 0.12982 38.6762 0.239667 3.1656 0.279611
41001.00 1373.21 100.138985 44.6479 0.12982 3.97448 0.190735 0.569209 7.99689 0.12982 38.6762 0.239667 3.1656 0.279611
40901.00 1373.00 100.138985 44.6479 0.12982 3.97448 0.190735 0.569209 7.99689 0.12982 38.6762 0.239667 3.1656 0.279611
40801.00 1372.80 100.138985 44.6479 0.12982 3.97448 0.190735 0.569209 7.99689 0.12982 38.6762 0.239667 3.1656 0.279611
40701.00 1372.59 100.138985 44.6479 0.12982 3.97448 0.190735 0.569209 7.99689 0.12982 38.6762 0.239667 3.1656 0.279611
40601.00 1372.38 100.138985 44.6479 0.12982 3.97448 0.190735 0.569209 7.99689 0.12982 38.6762 0.239667 3.1656 0.279611
40501.00 1372.18 100.138985 44.6479 0.12982 3.97448 0.190735 0.569209 7.99689 0.12982 38.6762 0.239667 3.1656 0.279611
40401.00 1371.97 100.138985 44.6479 0.12982 3.97448 0.190735 0.569209 7.99689 0.12982 38.6762 0.239667 3.1656 0.279611
40301.00 1371.76 100.138985 44.6479 0.12982 3.97448 0.190735 0.569209 7.99689 0.12982 38.6762 0.239667 3.1656 0.279611
40201.00 1371.55 100.138985 44.6479 0.12982 3.97448 0.190735 0.569209 7.99689 0.12982 38.6762 0.239667 3.1656 0.279611
40101.00 1371.35 100.138985 44.6479 0.12982 3.97448 0.190735 0.569209 7.99689 0.12982 38.6762 0.239667 3.1656 0.279611
40001.00 1371.14 100.138985 44.6479 0.12982 3.97448 0.190735 0.569209 7.99689 0.12982 38.6762 0.239667 3.1656 0.279611
39901.00 1370.93 100.138985 44.6479 0.12982 3.97448 0.190735 0.569209 7.99689 0.12982 38.6762 0.239667 3.1656 0.279611
39801.00 1370.73 100.138985 44.6479 0.12982 3.97448 0.190735 0.569209 7.99689 0.12982 38.6762 0.239667 3.1656 0.279611
39701.00 1370.52 100.138985 44.6479 0.12982 3.97448 0.190735 0.569209 7.99689 0.12982 38.6762 0.239667 3.1656 0.279611
39601.00 1370.31 100.138985 44.6479 0.12982 3.97448 0.190735 0.569209 7.99689 0.12982 38.6762 0.239667 3.1656 0.279611
39501.00 1370.10 100.138985 44.6479 0.12982 3.97448 0.190735 0.569209 7.99689 0.12982 38.6762 0.239667 3.1656 0.279611
39401.00 1369.90 100.138985 44.6479 0.12982 3.97448 0.190735 0.569209 7.99689 0.12982 38.6762 0.239667 3.1656 0.279611
39301.00 1369.69 100.138985 44.6479 0.12982 3.97448 0.190735 0.569209 7.99689 0.12982 38.6762 0.239667 3.1656 0.279611
39201.00 1369.48 100.138985 44.6479 0.12982 3.97448 0.190735 0.569209 7.99689 0.12982 38.6762 0.239667 3.1656 0.279611
39101.00 1369.27 100.138985 44.6479 0.12982 3.97448 0.190735 0.569209 7.99689 0.12982 38.6762 0.239667 3.1656 0.279611
39001.00 1369.07 100.138985 44.6479 0.12982 3.97448 0.190735 0.569209 7.99689 0.12982 38.6762 0.239667 3.1656 0.279611
38901.00 1368.86 100.138985 44.6479 0.12982 3.97448 0.190735 0.569209 7.99689 0.12982 38.6762 0.239667 3.1656 0.279611
38801.00 1368.65 100.138985 44.6479 0.12982 3.97448 0.190735 0.569209 7.99689 0.12982 38.6762 0.239667 3.1656 0.279611
38701.00 1368.44 100.138985 44.6479 0.12982 3.97448 0.190735 0.569209 7.99689 0.12982 38.6762 0.239667 3.1656 0.279611
38601.00 1368.23 100.138985 44.6479 0.12982 3.97448 0.190735 0.569209 7.99689 0.12982 38.6762 0.239667 3.1656 0.279611
38501.00 1368.03 100.138985 44.6479 0.12982 3.97448 0.190735 0.569209 7.99689 0.12982 38.6762 0.239667 3.1656 0.279611
38401.00 1367.82 100.138985 44.6479 0.12982 3.97448 0.190735 0.569209 7.99689 0.12982 38.6762 0.239667 3.1656 0.279611
38301.00 1367.61 100.138985 44.6479 0.12982 3.97448 0.190735 0.569209 7.99689 0.12982 38.6762 0.239667 3.1656 0.279611
38201.00 1367.40 100.138985 44.6479 0.12982 3.97448 0.190735 0.569209 7.99689 0.12982 38.6762 0.239667 3.1656 0.279611
38101.00 1367.19 100.138985 44.6479 0.12982 3.97448 0.190735 0.569209 7.99689 0.12982 38.6762 0.239667 3.1656 0.279611
38001.00 1366.99 100.138985 44.6479 0.12982 3.97448 0.190735 0.569209 7.99689 0.12982 38.6762 0.239667 3.1656 0.279611
37901.00 1366.78 100.138985 44.6479 0.12982 3.97448 0.190735 0.569209 7.99689 0.12982 38.6762 0.239667 3.1656 0.279611
37801.00 1366.57 100.138985 44.6479 0.12982 3.97448 0.190735 0.569209 7.99689 0.12982 38.6762 0.239667 3.1656 0.279611
37701.00 1366.36 100.138985 44.6479 0.12982 3.97448 0.190735 0.569209 7.99689 0.12982 38.6762 0.239667 3.1656 0.279611
37601.00 1366.15 100.138985 44.6479 0.12982 3.97448 0.190735 0.569209 7.99689 0.12982 38.6762 0.239667 3.1656 0.279611
37501.00 1365.94 100.138985 44.6479 0.12982 3.97448 0.190735 0.569209 7.99689 0.12982 38.6762 0.239667 3.1656 0.279611
37401.00 1365.73 100.138985 44.6479 0.12982 3.97448 0.190735 0.569209 7.99689 0.12982 38.6762 0.239667 3.1656 0.279611
37301.00 1365.53 100.138985 44.6479 0.12982 3.97448 0.190735 0.569209 7.99689 0.12982 38.6762 0.239667 3.1656 0.279611
37201.00 1365.32 100.138985 44.6479 0.12982 3.97448 0.190735 0.569209 7.99689 0.12982 38.6762 0.239667 3.1656 0.279611
37101.00 1365.11 100.138985 44.6479 0.12982 3.97448 0.190735 0.569209 7.99689 0.12982 38.6762 0.239667 3.1656 0.279611
37001.00 1364.90 100.138985 44.6479 0.12982 3.97448 0.190735 0.569209 7.99689 0.12982 38.6762 0.239667 3.1656 0.279611
36901.00 1364.69 100.138985 44.6479 0.12982 3.97448 0.190735 0.569209 7.99689 0.12982 38.6762 0.239667 3.1656 0.279611
36801.00 1364.48 100.138985 44.6479 0.12982 3.97448 0.190735 0.569209 7.99689 0.12982 38.6762 0.239667 3.1656 0.279611
36701.00 1364.27 100.138985 44.6479 0.12982 3.97448 0.190735 0.569209 7.99689 0.12982 38.6762 0.239667 3.1656 0.279611
36601.00 1364.06 100.138985 44.6479 0.12982 3.97448 0.190735 0.569209 7.99689 0.12982 38.6762 0.239667 3.1656 0.279611
36501.00 1363.85 100.138985 44.6479 0.12982 3.97448 0.190735 0.569209 7.99689 0.12982 38.6762 0.239667 3.1656 0.279611
36401.00 1363.64 100.138985 44.6479 0.12982 3.97448 0.190735 0.569209 7.99689 0.12982 38.6762 0.239667 3.1656 0.279611
36301.00 1363.43 100.138985 44.6479 0.12982 3.97448 0.190735 0.569209 7.99689 0.12982 38.6762 0.239667 3.1656 0.279611
36201.00 1363.22 100.138985 44.6479 0.12982 3.97448 0.190735 0.569209 7.99689 0.12982 38.6762 0.239667 3.1656 0.279611
36101.00 1363.01 100.138985 44.6479 0.12982 3.97448 0.190735 0.569209 7.99689 0.12982 38.6762 0.239667 3.1656 0.279611
36001.00 1362.80 100.138985 44.6479 0.12982 3.97448 0.190735 0.569209 7.99689 0.12982 38.6762 0.239667 3.1656 0.279611
35901.00 1362.59 100.138985 44.6479 0.12982 3.97448 0.190735 0.569209 7.99689 0.12982 38.6762 0.239667 3.1656 0.279611
35801.00 1362.38 100.138985 44.6479 0.12982 3.97448 0.190735 0.569209 7.99689 0.12982 38.6762 0.239667 3.1656 0.279611
35701.00 1362.17 100.138985 44.6479 0.12982 3.97448 0.190735 0.569209 7.99689 0.12982 38.6762 0.239667 3.1656 0.279611
35601.00 1361.96 100.138985 44.6479 0.12982 3.97448 0.190735 0.569209 7.99689 0.12982 38.6762 0.239667 3.1656 0.279611
35501.00 1361.75 100.138985 44.6479 0.12982 3.97448 0.190735 0.569209 7.99689 0.12982 38.6762 0.239667 3.1656 0.279611
35401.00 1361.54 100.138985 44.6479 0.12982 3.97448 0.190735 0.569209 7.99689 0.12982 38.6762 0.239667 3.1656 0.279611
35301.00 1361.33 100.138985 44.6479 0.12982 3.97448 0.190735 0.569209 7.99689 0.12982 38.6762 0.239667 3.1656 0.279611
35201.00 1361.12 100.138985 44.6479 0.12982 3.97448 0.190735 0.569209 7.99689 0.12982 38.6762 0.239667 3.1656 0.279611
35101.00 1360.91 100.138985 44.6479 0.12982 3.97448 0.190735 0.569209 7.99689 0.12982 38.6762 0.239667 3.1656 0.279611
35001.00 1360.70 100.138985 44.6479 0.12982 3.97448 0.190735 0.569209 7.99689 0.12982 38.6762 0.239667 3.1656 0.279611
34901.00 1360.49 100.138985 44.6479 0.12982 3.97448 0.190735 0.569209 7.99689 0.12982 38.6762 0.239667 3.1656 0.279611
34801.00 1360.27 100.138985 44.6479 0.12982 3.97448 0.190735 0.569209 7.99689 0.12982 38.6762 0.239667 3.1656 0.279611
34701.00 1360.06 100.138985 44.6479 0.12982 3.97448 0.190735 0.569209 7.99689 0.12982 38.6762 0.239667 3.1656 0.279611
34601.00 1359.85 100.138985 44.6479 0.12982 3.97448 0.190735 0.569209 7.99689 0.12982 38.6762 0.239667 3.1656 0.279611
34501.00 1359.64 100.138985 44.6479 0.12982 3.97448 0.190735 0.569209 7.99689 0.12982 38.6762 0.239667 3.1656 0.279611
34401.00 1359.43 100.138985 44.6479 0.12982 3.97448 0.190735 0.569209 7.99689 0.12982 38.6762 0.239667 3.1656 0.279611
34301.00 1359.22 100.138985 44.6479 0.12982 3.97448 0.190735 0.569209 7.99689 0.12982 38.6762 0.239667 3.1656 0.279611
34201.00 1359.00 100.138985 44.6479 0.12982 3.97448 0.190735 0.569209 7.99689 0.12982 38.6762 0.239667 3.1656 0.279611
34101.00 1358.79 100.138985 44.6479 0.12982 3.97448 0.190735 0.569209 7.99689 0.12982 38.6762 0.239667 3.1656 0.279611
34001.00 1358.58 100.138985 44.6479 0.12982 3.97448 0.190735 0.569209 7.99689 0.12982 38.6762 0.239667 3.1656 0.279611
33901.00 1358.37 100.138985 44.6479 0.12982 3.97448 0.190735 0.569209 7.99689 0.12982 38.6762 0.239667 3.1656 0.279611
33801.00 1358.15 100.138985 44.6479 0.12982 3.97448 0.190735 0.569209 7.99689 0.12982 38.6762 0.239667 3.1656 0.279611
33701.00 1357.94 100.138985 44.6479 0.12982 3.97448 0.190735 0.569209 7.99689 0.12982 38.6762 0.239667 3.1656 0.279611
33601.00 1357.73 100.138985 44.6479 0.12982 3.97448 0.190735 0.569209 7.99689 0.12982 38.6762 0.239667 3.1656 0.279611
33501.00 1357.52 100.138985 44.6479 0.12982 3.97448 0.190735 0.569209 7.99689 0.12982 38.6762 0.239667 3.1656 0.279611
33401.00 1357.30 100.138985 44.6479 0.12982 3.97448 0.190735 0.569209 7.99689 0.12982 38.6762 0.239667 3.1656 0.279611
33301.00 1357.09 100.138985 44.6479 0.12982 3.97448 0.190735 0.569209 7.99689 0.12982 38.6762 0.239667 3.1656 0.279611
33201.00 1356.88 100.138985 44.6479 0.12982 3.97448 0.190735 0.569209 7.99689 0.12982 38.6762 0.239667 3.1656 0.279611
33101.00 1356.66 100.138985 44.6479 0.12982 3.97448 0.190735 0.569209 7.99689 0.12982 38.6762 0.239667 3.1656 0.279611
33001.00 1356.45 100.138985 44.6479 0.12982 3.97448 0.190735 0.569209 7.99689 0.12982 38.6762 0.239667 3.1656 0.279611
32901.00 1356.24 100.138985 44.6479 0.12982 3.97448 0.190735 0.569209 7.99689 0.12982 38.6762 0.239667 3.1656 0.279611
32801.00 1356.02 100.138985 44.6479 0.12982 3.97448 0.190735 0.569209 7.99689 0.12982 38.6762 0.239667 3.1656 0.279611
32701.00 1355.81 100.138985 44.6479 0.12982 3.97448 0.190735 0.569209 7.99689 0.12982 38.6762 0.239667 3.1656 0.279611
32601.00 1355.59 100.138985 44.6479 0.12982 3.97448 0.190735 0.569209 7.99689 0.12982 38.6762 0.239667 3.1656 0.279611
32501.00 1355.38 100.138985 44.6479 0.12982 3.97448 0.190735 0.569209 7.99689 0.12982 38.6762 0.239667 3.1656 0.279611
32401.00 1355.16 100.138985 44.6479 0.12982 3.97448 0.190735 0.569209 7.99689 0.12982 38.6762 0.239667 3.1656 0.279611
32301.00 1354.95 100.138985 44.6479 0.12982 3.97448 0.190735 0.569209 7.99689 0.12982 38.6762 0.239667 3.1656 0.279611
32201.00 1354.73 100.138985 44.6479 0.12982 3.97448 0.190735 0.569209 7.99689 0.12982 38.6762 0.239667 3.1656 0.279611
32101.00 1354.52 100.138985 44.6479 0.12982 3.97448 0.190735 0.569209 7.99689 0.12982 38.6762 0.239667 3.1656 0.279611
32001.00 1354.30 100.138985 44.6479 0.12982 3.97448 0.190735 0.569209 7.99689 0.12982 38.6762 0.239667 3.1656 0.279611
31901.00 1354.09 100.138985 44.6479 0.12982 3.97448 0.190735 0.569209 7.99689 0.12982 38.6762 0.239667 3.1656 0.279611
31801.00 1353.87 100.138985 44.6479 0.12982 3.97448 0.190735 0.569209 7.99689 0.12982 38.6762 0.239667 3.1656 0.279611
31701.00 1353.66 100.138985 44.6479 0.12982 3.97448 0.190735 0.569209 7.99689 0.12982 38.6762 0.239667 3.1656 0.279611
31601.00 1353.44 100.138985 44.6479 0.12982 3.97448 0.190735 0.569209 7.99689 0.12982 38.6762 0.239667 3.1656 0.279611
31501.00 1353.22 100.138985 44.6479 0.12982 3.97448 0.190735 0.569209 7.99689 0.12982 38.6762 0.239667 3.1656 0.279611
31401.00 1353.01 100.138985 44.6479 0.12982 3.97448 0.190735 0.569209 7.99689 0.12982 38.6762 0.239667 3.1656 0.279611
31301.00 1352.79 100.138985 44.6479 0.12982 3.97448 0.190735 0.569209 7.99689 0.12982 38.6762 0.239667 3.1656 0.279611
31201.00 1352.57 100.138985 44.6479 0.12982 3.97448 0.190735 0.569209 7.99689 0.12982 38.6762 0.239667 3.1656 0.279611
31101.00 1352.36 100.138985 44.6479 0.12982 3.97448 0.190735 0.569209 7.99689 0.12982 38.6762 0.239667 3.1656 0.279611
31001.00 1352.14 100.138985 44.6479 0.12982 3.97448 0.190735 0.569209 7.99689 0.12982 38.6762 0.239667 3.1656 0.279611
30901.00 1351.92 100.138985 44.6479 0.12982 3.97448 0.190735 0.569209 7.99689 0.12982 38.6762 0.239667 3.1656 0.279611
30801.00 1351.70 100.138985 44.6479 0.12982 3.97448 0.190735 0.569209 7.99689 0.12982 38.6762 0.239667 3.1656 0.279611
30701.00 1351.49 100.138985 44.6479 0.12982 3.97448 0.190735 0.569209 7.99689 0.12982 38.6762 0.239667 3.1656 0.279611
30601.00 1351.27 100.138985 44.6479 0.12982 3.97448 0.190735 0.569209 7.99689 0.12982 38.6762 0.239667 3.1656 0.279611
30501.00 1351.05 100.138985 44.6479 0.12982 3.97448 0.190735 0.569209 7.99689 0.12982 38.6762 0.239667 3.1656 0.279611
30401.00 1350.83 100.138985 44.6479 0.12982 3.97448 0.190735 0.569209 7.99689 0.12982 38.6762 0.239667 3.1656 0.279611
30301.00 1350.61 100.138985 44.6479 0.12982 3.97448 0.190735 0.569209 7.99689 0.12982 38.6762 0.239667 3.1656 0.279611
30201.00 1350.39 100.138985 44.6479 0.12982 3.97448 0.190735 0.569209 7.99689 0.12982 38.6762 0.239667 3.1656 0.279611
30101.00 1350.17 100.138985 44.6479 0.12982 3.97448 0.190735 0.569209 7.99689 0.12982 38.6762 0.239667 3.1656 0.279611
30001.00 1349.95 100.138985 44.6479 0.12982 3.97448 0.190735 0.569209 7.99689 0.12982 38.6762 0.239667 3.1656 0.279611
29901.00 1349.73 100.138985 44.6479 0.12982 3.97448 0.190735 0.569209 7.99689 0.12982 38.6762 0.239667 3.1656 0.279611
29801.00 1349.51 100.138985 44.6479 0.12982 3.97448 0.190735 0.569209 7.99689 0.12982 38.6762 0.239667 3.1656 0.279611
29701.00 1349.29 100.138985 44.6479 0.12982 3.97448 0.190735 0.569209 7.99689 0.12982 38.6762 0.239667 3.1656 0.279611
29601.00 1349.07 100.138985 44.6479 0.12982 3.97448 0.190735 0.569209 7.99689 0.12982 38.6762 0.239667 3.1656 0.279611
29501.00 1348.85 100.138985 44.6479 0.12982 3.97448 0.190735 0.569209 7.99689 0.12982 38.6762 0.239667 3.1656 0.279611
29401.00 1348.63 100.138985 44.6479 0.12982 3.97448 0.190735 0.569209 7.99689 0.12982 38.6762 0.239667 3.1656 0.279611
29301.00 1348.41 100.138985 44.6479 0.12982 3.97448 0.190735 0.569209 7.99689 0.12982 38.6762 0.239667 3.1656 0.279611
29201.00 1348.19 100.138985 44.6479 0.12982 3.97448 0.190735 0.569209 7.99689 0.12982 38.6762 0.239667 3.1656 0.279611
29101.00 1347.97 100.138985 44.6479 0.12982 3.97448 0.190735 0.569209 7.99689 0.12982 38.6762 0.239667 3.1656 0.279611
29001.00 1347.74 100.138985 44.6479 0.12982 3.97448 0.190735 0.569209 7.99689 0.12982 38.6762 0.239667 3.1656 0.279611
28901.00 1347.52 100.138985 44.6479 0.12982 3.97448 0.190735 0.569209 7.99689 0.12982 38.6762 0.239667 3.1656 0.279611
28801.00 1347.30 100.138985 44.6479 0.12982 3.97448 0.190735 0.569209 7.99689 0.12982 38.6762 0.239667 3.1656 0.279611
28701.00 1347.07 100.138985 44.6479 0.12982 3.97448 0.190735 0.569209 7.99689 0.12982 38.6762 0.239667 3.1656 0.279611
28601.00 1346.85 100.138985 44.6479 0.12982 3.97448 0.190735 0.569209 7.99689 0.12982 38.6762 0.239667 3.1656 0.279611
28501.00 1346.63 100.138985 44.6479 0.12982 3.97448 0.190735 0.569209 7.99689 0.12982 38.6762 0.239667 3.1656 0.279611
28401.00 1346.40 100.138985 44.6479 0.12982 3.97448 0.190735 0.569209 7.99689 0.12982 38.6762 0.239667 3.1656 0.279611
28301.00 1346.18 100.138985 44.6479 0.12982 3.97448 0.190735 0.569209 7.99689 0.12982 38.6762 0.239667 3.1656 0.279611
28201.00 1345.95 100.138985 44.6479 0.12982 3.97448 0.190735 0.569209 7.99689 0.12982 38.6762 0.239667 3.1656 0.279611
28101.00 1345.73 100.138985 44.6479 0.12982 3.97448 0.190735 0.569209 7.99689 0.12982 38.6762 0.239667 3.1656 0.279611
28001.00 1345.50 100.138985 44.6479 0.12982 3.97448 0.190735 0.569209 7.99689 0.12982 38.6762 0.239667 3.1656 0.279611
27901.00 1345.27 100.138985 44.6479 0.12982 3.97448 0.190735 0.569209 7.99689 0.12982 38.6762 0.239667 3.1656 0.279611
27801.00 1345.05 100.138985 44.6479 0.12982 3.97448 0.190735 0.569209 7.99689 0.12982 38.6762 0.239667 3.1656 0.279611
27701.00 1344.82 100.138985 44.6479 0.12982 3.97448 0.190735 0.569209 7.99689 0.12982 38.6762 0.239667 3.1656 0.279611
27601.00 1344.59 100.138985 44.6479 0.12982 3.97448 0.190735 0.569209 7.99689 0.12982 38.6762 0.239667 3.1656 0.279611
