Title: Depleted MORB Mantle of Workmann & Hart 2005

Liquid Composition:
Pressure Temperature mass SiO2 TiO2 Al2O3 Fe2O3 Cr2O3 FeO MnO MgO NiO CaO Na2O 
44001.00 1379.39 0.000000 ---
43901.00 1379.19 0.000000 ---
43801.00 1378.98 0.000000 ---
43701.00 1378.77 0.000000 ---
43601.00 1378.57 0.000000 ---
43501.00 1378.36 0.000000 ---
43401.00 1378.16 0.000000 ---
43301.00 1377.95 0.000000 ---
43201.00 1377.75 0.000000 ---
43101.00 1377.54 0.000000 ---
43001.00 1377.33 0.000000 ---
42901.00 1377.13 0.000000 ---
42801.00 1376.92 0.000000 ---
42701.00 1376.72 0.000000 ---
42601.00 1376.51 0.000000 ---
42501.00 1376.30 0.000000 ---
42401.00 1376.10 0.000000 ---
42301.00 1375.89 0.000000 ---
42201.00 1375.69 0.000000 ---
42101.00 1375.48 0.000000 ---
42001.00 1375.27 0.000000 ---
41901.00 1375.07 0.000000 ---
41801.00 1374.86 0.000000 ---
41701.00 1374.65 0.000000 ---
41601.00 1374.45 0.000000 ---
41501.00 1374.24 0.000000 ---
41401.00 1374.04 0.000000 ---
41301.00 1373.83 0.000000 ---
41201.00 1373.62 0.000000 ---
41101.00 1373.42 0.000000 ---
41001.00 1373.21 0.000000 ---
40901.00 1373.00 0.000000 ---
40801.00 1372.80 0.000000 ---
40701.00 1372.59 0.000000 ---
40601.00 1372.38 0.000000 ---
40501.00 1372.18 0.000000 ---
40401.00 1371.97 0.000000 ---
40301.00 1371.76 0.000000 ---
40201.00 1371.55 0.000000 ---
40101.00 1371.35 0.000000 ---
40001.00 1371.14 0.000000 ---
39901.00 1370.93 0.000000 ---
39801.00 1370.73 0.000000 ---
39701.00 1370.52 0.000000 ---
39601.00 1370.31 0.000000 ---
39501.00 1370.10 0.000000 ---
39401.00 1369.90 0.000000 ---
39301.00 1369.69 0.000000 ---
39201.00 1369.48 0.000000 ---
39101.00 1369.27 0.000000 ---
39001.00 1369.07 0.000000 ---
38901.00 1368.86 0.000000 ---
38801.00 1368.65 0.000000 ---
38701.00 1368.44 0.000000 ---
38601.00 1368.23 0.000000 ---
38501.00 1368.03 0.000000 ---
38401.00 1367.82 0.000000 ---
38301.00 1367.61 0.000000 ---
38201.00 1367.40 0.000000 ---
38101.00 1367.19 0.000000 ---
38001.00 1366.99 0.000000 ---
37901.00 1366.78 0.000000 ---
37801.00 1366.57 0.000000 ---
37701.00 1366.36 0.000000 ---
37601.00 1366.15 0.000000 ---
37501.00 1365.94 0.000000 ---
37401.00 1365.73 0.000000 ---
37301.00 1365.53 0.000000 ---
37201.00 1365.32 0.000000 ---
37101.00 1365.11 0.000000 ---
37001.00 1364.90 0.000000 ---
36901.00 1364.69 0.000000 ---
36801.00 1364.48 0.000000 ---
36701.00 1364.27 0.000000 ---
36601.00 1364.06 0.000000 ---
36501.00 1363.85 0.000000 ---
36401.00 1363.64 0.000000 ---
36301.00 1363.43 0.000000 ---
36201.00 1363.22 0.000000 ---
36101.00 1363.01 0.000000 ---
36001.00 1362.80 0.000000 ---
35901.00 1362.59 0.000000 ---
35801.00 1362.38 0.000000 ---
35701.00 1362.17 0.000000 ---
35601.00 1361.96 0.000000 ---
35501.00 1361.75 0.000000 ---
35401.00 1361.54 0.000000 ---
35301.00 1361.33 0.000000 ---
35201.00 1361.12 0.000000 ---
35101.00 1360.91 0.000000 ---
35001.00 1360.70 0.000000 ---
34901.00 1360.49 0.000000 ---
34801.00 1360.27 0.000000 ---
34701.00 1360.06 0.000000 ---
34601.00 1359.85 0.000000 ---
34501.00 1359.64 0.000000 ---
34401.00 1359.43 0.000000 ---
34301.00 1359.22 0.000000 ---
34201.00 1359.00 0.000000 ---
34101.00 1358.79 0.000000 ---
34001.00 1358.58 0.000000 ---
33901.00 1358.37 0.000000 ---
33801.00 1358.15 0.000000 ---
33701.00 1357.94 0.000000 ---
33601.00 1357.73 0.000000 ---
33501.00 1357.52 0.000000 ---
33401.00 1357.30 0.000000 ---
33301.00 1357.09 0.000000 ---
33201.00 1356.88 0.000000 ---
33101.00 1356.66 0.000000 ---
33001.00 1356.45 0.000000 ---
32901.00 1356.24 0.000000 ---
32801.00 1356.02 0.000000 ---
32701.00 1355.81 0.000000 ---
32601.00 1355.59 0.000000 ---
32501.00 1355.38 0.000000 ---
32401.00 1355.16 0.000000 ---
32301.00 1354.95 0.000000 ---
32201.00 1354.73 0.000000 ---
32101.00 1354.52 0.000000 ---
32001.00 1354.30 0.000000 ---
31901.00 1354.09 0.000000 ---
31801.00 1353.87 0.000000 ---
31701.00 1353.66 0.000000 ---
31601.00 1353.44 0.000000 ---
31501.00 1353.22 0.000000 ---
31401.00 1353.01 0.000000 ---
31301.00 1352.79 0.000000 ---
31201.00 1352.57 0.000000 ---
31101.00 1352.36 0.000000 ---
31001.00 1352.14 0.000000 ---
30901.00 1351.92 0.000000 ---
30801.00 1351.70 0.000000 ---
30701.00 1351.49 0.000000 ---
30601.00 1351.27 0.000000 ---
30501.00 1351.05 0.000000 ---
30401.00 1350.83 0.000000 ---
30301.00 1350.61 0.000000 ---
30201.00 1350.39 0.000000 ---
30101.00 1350.17 0.000000 ---
30001.00 1349.95 0.000000 ---
29901.00 1349.73 0.000000 ---
29801.00 1349.51 0.000000 ---
29701.00 1349.29 0.000000 ---
29601.00 1349.07 0.000000 ---
29501.00 1348.85 0.000000 ---
29401.00 1348.63 0.000000 ---
29301.00 1348.41 0.000000 ---
29201.00 1348.19 0.000000 ---
29101.00 1347.97 0.000000 ---
29001.00 1347.74 0.000000 ---
28901.00 1347.52 0.000000 ---
28801.00 1347.30 0.000000 ---
28701.00 1347.07 0.000000 ---
28601.00 1346.85 0.000000 ---
28501.00 1346.63 0.000000 ---
28401.00 1346.40 0.000000 ---
28301.00 1346.18 0.000000 ---
28201.00 1345.95 0.000000 ---
28101.00 1345.73 0.000000 ---
28001.00 1345.50 0.000000 ---
27901.00 1345.27 0.000000 ---
27801.00 1345.05 0.000000 ---
27701.00 1344.82 0.000000 ---
27601.00 1344.59 0.000000 ---
27501.00 1344.37 0.000000 ---
27401.00 1344.14 0.000000 ---
27301.00 1343.91 0.000000 ---
27201.00 1343.68 0.000000 ---
27101.00 1343.45 0.000000 ---
27001.00 1343.22 0.000000 ---
26901.00 1342.99 0.000000 ---
26801.00 1342.76 0.000000 ---
26701.00 1342.53 0.000000 ---
26601.00 1342.30 0.000000 ---
26501.00 1342.07 0.000000 ---
26401.00 1341.83 0.000000 ---
26301.00 1341.60 0.000000 ---
26201.00 1341.37 0.000000 ---
26101.00 1341.13 0.000000 ---
26001.00 1340.90 0.000000 ---
25901.00 1340.66 0.000000 ---
25801.00 1340.43 0.000000 ---
25701.00 1340.19 0.000000 ---
25601.00 1339.96 0.000000 ---
25501.00 1339.72 0.000000 ---
25401.00 1339.48 0.000000 ---
25301.00 1339.24 0.000000 ---
25201.00 1339.00 0.000000 ---
25101.00 1338.76 0.000000 ---
25001.00 1338.52 0.000000 ---
24901.00 1338.28 0.000000 ---
24801.00 1338.04 0.000000 ---
24701.00 1337.79 0.000000 ---
24601.00 1337.55 0.000000 ---
24501.00 1337.31 0.000000 ---
24401.00 1337.06 0.000000 ---
24301.00 1336.82 0.000000 ---
24201.00 1336.57 0.000000 ---
24101.00 1336.32 0.000000 ---
24001.00 1336.07 0.000000 ---
23901.00 1335.82 0.000000 ---
23801.00 1335.57 0.000000 ---
23701.00 1335.32 0.000000 ---
23601.00 1335.07 0.000000 ---
23501.00 1334.82 0.000000 ---
23401.00 1334.56 0.000000 ---
23301.00 1334.31 0.000000 ---
23201.00 1334.05 0.000000 ---
23101.00 1333.80 0.000000 ---
23001.00 1333.54 0.000000 ---
22901.00 1333.28 0.000000 ---
22801.00 1333.02 0.000000 ---
22701.00 1332.76 0.000000 ---
22601.00 1332.49 0.000000 ---
22501.00 1332.23 0.000000 ---
22401.00 1331.96 0.000000 ---
22301.00 1331.70 0.000000 ---
22201.00 1331.43 0.000000 ---
22101.00 1331.16 0.000000 ---
22001.00 1330.89 0.000000 ---
21901.00 1330.61 0.000000 ---
21801.00 1330.34 0.000000 ---
21701.00 1330.06 0.000000 ---
21601.00 1329.78 0.000000 ---
21501.00 1329.50 0.000000 ---
21401.00 1329.22 0.000000 ---
21301.00 1328.94 0.000000 ---
21201.00 1328.65 0.000000 ---
21101.00 1328.37 0.000000 ---
21001.00 1328.08 0.000000 ---
20901.00 1327.78 0.000000 ---
20801.00 1327.49 0.000000 ---
20701.00 1327.19 0.000000 ---
20601.00 1326.89 0.000000 ---
20501.00 1326.59 0.000000 ---
20401.00 1326.29 0.000000 ---
20301.00 1325.98 0.000000 ---
20201.00 1325.67 0.000000 ---
20101.00 1325.36 0.000000 ---
20001.00 1325.04 0.000000 ---
19901.00 1324.72 0.000000 ---
19801.00 1324.40 0.000000 ---
19701.00 1324.15 0.000000 ---
19601.00 1323.95 0.000000 ---
19501.00 1323.76 0.000000 ---
19401.00 1323.57 0.000000 ---
19301.00 1323.38 0.000000 ---
19201.00 1323.19 0.000000 ---
19101.00 1322.99 0.000000 ---
19001.00 1322.80 0.000000 ---
18901.00 1322.61 0.000000 ---
18801.00 1322.42 0.000000 ---
18701.00 1322.23 0.000000 ---
18601.00 1322.03 0.000000 ---
18501.00 1321.84 0.000000 ---
18401.00 1321.65 0.000000 ---
18301.00 1321.46 0.000000 ---
18201.00 1321.27 0.000000 ---
18101.00 1321.07 0.000000 ---
18001.00 1320.88 0.000000 ---
17901.00 1320.69 0.000000 ---
17801.00 1320.50 0.000000 ---
17701.00 1320.30 0.000000 ---
17601.00 1320.11 0.000000 ---
17501.00 1319.92 0.000000 ---
17401.00 1319.73 0.000000 ---
17301.00 1319.54 0.000000 ---
17201.00 1319.34 0.000000 ---
17101.00 1319.15 0.000000 ---
17001.00 1318.96 0.000000 ---
16901.00 1318.77 0.000000 ---
16801.00 1318.57 0.000000 ---
16701.00 1318.38 0.000000 ---
16601.00 1318.19 0.000000 ---
16501.00 1318.00 0.000000 ---
16401.00 1317.80 0.000000 ---
16301.00 1317.61 0.000000 ---
16201.00 1317.42 0.000000 ---
16101.00 1317.23 0.000000 ---
16001.00 1317.03 0.000000 ---
15901.00 1316.84 0.000000 ---
15801.00 1316.65 0.000000 ---
15701.00 1316.46 0.000000 ---
15601.00 1316.26 0.000000 ---
15501.00 1316.07 0.000000 ---
15401.00 1315.88 0.000000 ---
15301.00 1315.69 0.000000 ---
15201.00 1315.49 0.000000 ---
15101.00 1315.30 0.000000 ---
15001.00 1315.11 0.000000 ---
14901.00 1314.91 0.000000 ---
14801.00 1314.72 0.000000 ---
14701.00 1314.53 0.000000 ---
14601.00 1314.34 0.000000 ---
14501.00 1314.03 0.027684 50.3623 0.724195 17.6121 0.108621 0.297598 5.50326 0.0207392 9.96851 0.0117369 4.73916 10.6517
14401.00 1313.69 0.064323 50.415 0.723258 17.6254 0.110004 0.293501 5.49384 0.0204919 9.96519 0.0115928 4.79013 10.5516
14301.00 1313.35 0.101551 50.4672 0.722351 17.6383 0.11142 0.289428 5.4846 0.0202461 9.96208 0.0114497 4.84182 10.451
14201.00 1313.01 0.139389 50.519 0.721475 17.651 0.112869 0.285379 5.47555 0.0200018 9.95918 0.0113074 4.89423 10.3499
14101.00 1312.67 0.177859 50.5704 0.720631 17.6634 0.114352 0.281354 5.46669 0.019759 9.9565 0.0111661 4.94738 10.2484
14001.00 1312.33 0.216984 50.6212 0.719817 17.6755 0.11587 0.277354 5.45801 0.0195177 9.95404 0.0110257 5.00128 10.1464
13901.00 1311.98 0.256790 50.6716 0.719035 17.6873 0.117425 0.27338 5.44953 0.0192779 9.9518 0.0108863 5.05594 10.0439
13801.00 1311.63 0.297301 50.7215 0.718284 17.6987 0.119018 0.269431 5.44123 0.0190396 9.94978 0.0107478 5.11137 9.94088
13701.00 1311.28 0.338544 50.7709 0.717565 17.7099 0.12065 0.265507 5.43313 0.0188028 9.94797 0.0106102 5.16759 9.83744
13601.00 1310.93 0.380548 50.8197 0.716878 17.7207 0.122321 0.261611 5.42522 0.0185676 9.94639 0.0104735 5.22459 9.73353
13501.00 1310.58 0.423342 50.868 0.716223 17.7312 0.124034 0.25774 5.41751 0.0183338 9.94502 0.0103378 5.28241 9.62916
13401.00 1310.22 0.466956 50.9157 0.7156 17.7414 0.125789 0.253897 5.41 0.0181015 9.94387 0.010203 5.34103 9.52434
13301.00 1309.86 0.511422 50.9629 0.715008 17.7513 0.127588 0.250081 5.40268 0.0178708 9.94294 0.0100692 5.40049 9.41906
13201.00 1309.50 0.556776 51.0095 0.714449 17.7608 0.129433 0.246294 5.39556 0.0176416 9.94222 0.00993624 5.46078 9.31333
13101.00 1309.14 0.603052 51.0555 0.713922 17.77 0.131324 0.242534 5.38865 0.0174139 9.94172 0.00980424 5.52192 9.20715
13001.00 1308.77 0.650287 51.101 0.713427 17.7789 0.133263 0.238803 5.38193 0.0171877 9.94143 0.00967318 5.58392 9.10054
12901.00 1308.40 0.698520 51.1457 0.712964 17.7874 0.135252 0.235102 5.37541 0.016963 9.94135 0.00954305 5.64678 8.9935
12801.00 1308.03 0.747793 51.1899 0.712533 17.7956 0.137292 0.23143 5.36909 0.0167399 9.94147 0.00941384 5.71053 8.88603
12701.00 1307.65 0.798148 51.2334 0.712133 17.8034 0.139385 0.227788 5.36297 0.0165183 9.9418 0.00928557 5.77516 8.77814
12601.00 1307.28 0.849631 51.2763 0.711765 17.8109 0.141532 0.224176 5.35705 0.0162982 9.94233 0.00915823 5.84068 8.66985
12501.00 1306.89 0.902289 51.3185 0.711428 17.818 0.143735 0.220596 5.35132 0.0160796 9.94305 0.00903182 5.90712 8.56115
12401.00 1306.51 0.956171 51.36 0.711122 17.8248 0.145996 0.217046 5.3458 0.0158625 9.94397 0.00890634 5.97446 8.45206
12301.00 1306.12 1.011330 51.4008 0.710846 17.8312 0.148316 0.213529 5.34046 0.015647 9.94507 0.00878178 6.04273 8.3426
12201.00 1305.73 1.057649 51.4409 0.710602 17.8373 0.150698 0.210042 5.33534 0.015433 9.94637 0.00865816 6.11194 8.23272
12101.00 1305.34 1.057706 51.4802 0.7104 17.8429 0.153146 0.206574 5.33052 0.0152206 9.94797 0.0085355 6.18225 8.12227
12001.00 1304.94 1.057776 51.5186 0.710242 17.8482 0.155661 0.203125 5.32599 0.0150097 9.94987 0.00841379 6.25365 8.01124
11901.00 1304.55 1.057860 51.556 0.710127 17.8532 0.158246 0.199696 5.32177 0.0148004 9.95207 0.00829304 6.32617 7.89963
11801.00 1304.15 1.057960 51.5926 0.710056 17.8577 0.160904 0.196287 5.31785 0.0145926 9.95457 0.00817324 6.39984 7.78745
11701.00 1303.75 1.058075 51.6282 0.71003 17.8619 0.163636 0.192898 5.31424 0.0143863 9.95737 0.00805439 6.47466 7.6747
11601.00 1303.34 1.058206 51.6628 0.710049 17.8656 0.166446 0.18953 5.31095 0.0141816 9.96046 0.00793648 6.55066 7.56137
11501.00 1302.94 1.058355 51.6964 0.710115 17.869 0.169337 0.186184 5.30798 0.0139785 9.96385 0.00781953 6.62785 7.44748
11401.00 1302.53 1.058522 51.729 0.710227 17.8719 0.17231 0.182859 5.30533 0.0137769 9.96753 0.00770352 6.70626 7.33303
11301.00 1302.12 1.058708 51.7606 0.710385 17.8745 0.175369 0.179556 5.303 0.0135768 9.9715 0.00758845 6.78589 7.21801
11201.00 1301.71 1.058914 51.7911 0.710592 17.8766 0.178517 0.176276 5.301 0.0133783 9.97576 0.00747433 6.86678 7.10244
11101.00 1301.30 1.059142 51.8206 0.710846 17.8784 0.181756 0.173019 5.29934 0.0131813 9.98031 0.00736114 6.94893 6.98633
11001.00 1300.88 1.059392 51.8489 0.711149 17.8797 0.185091 0.169786 5.298 0.0129859 9.98513 0.00724889 7.03236 6.86967
10901.00 1300.46 1.059666 51.8761 0.7115 17.8805 0.188523 0.166577 5.297 0.012792 9.99023 0.00713758 7.11709 6.75248
10801.00 1300.04 1.059965 51.9022 0.7119 17.881 0.192057 0.163392 5.29633 0.0125996 9.99559 0.0070272 7.20314 6.63477
10701.00 1299.62 1.060289 51.9271 0.71235 17.881 0.195696 0.160232 5.29601 0.0124088 10.0012 0.00691775 7.29051 6.51654
10601.00 1299.19 1.060642 51.9509 0.712849 17.8805 0.199442 0.157099 5.29602 0.0122194 10.0071 0.00680922 7.37923 6.39781
10501.00 1298.76 1.061024 51.9734 0.713397 17.8796 0.2033 0.153991 5.29636 0.0120316 10.0132 0.00670163 7.46931 6.27859
10401.00 1298.33 1.061437 51.9948 0.713994 17.8783 0.207273 0.15091 5.29705 0.0118454 10.0196 0.00659496 7.56076 6.1589
10301.00 1297.89 1.061883 52.0149 0.714641 17.8765 0.211365 0.147856 5.29808 0.0116606 10.0262 0.00648921 7.65358 6.03874
10201.00 1297.45 1.062363 52.0338 0.715336 17.8743 0.21558 0.144831 5.29943 0.0114774 10.033 0.00638438 7.7478 5.91813
10101.00 1297.01 1.062879 52.0514 0.71608 17.8716 0.21992 0.141834 5.30113 0.0112957 10.04 0.00628048 7.84341 5.7971
10001.00 1296.56 1.063435 52.0677 0.716871 17.8685 0.224391 0.138867 5.30315 0.0111155 10.0471 0.00617749 7.94043 5.67566
9901.00 1296.11 1.064031 52.0828 0.71771 17.8649 0.228995 0.135929 5.3055 0.0109369 10.0545 0.00607542 8.03886 5.55384
9801.00 1295.65 1.064670 52.0966 0.718595 17.8608 0.233736 0.133022 5.30817 0.0107597 10.062 0.00597426 8.1387 5.43166
9701.00 1295.20 1.065355 52.1091 0.719525 17.8563 0.238619 0.130147 5.31115 0.0105841 10.0696 0.00587402 8.23996 5.30913
9601.00 1294.73 1.066088 52.1204 0.720499 17.8513 0.243646 0.127303 5.31444 0.01041 10.0774 0.0057747 8.34262 5.1863
9501.00 1294.26 1.066873 52.1303 0.721515 17.8458 0.248822 0.124493 5.31803 0.0102375 10.0852 0.00567628 8.44669 5.0632
9401.00 1293.79 1.067712 52.139 0.722571 17.8399 0.25415 0.121716 5.3219 0.0100664 10.0931 0.00557878 8.55216 4.93984
9301.00 1293.31 1.068609 52.1464 0.723665 17.8335 0.259633 0.118974 5.32606 0.00989687 10.1011 0.00548219 8.65902 4.81628
9201.00 1292.83 1.069568 52.1526 0.724795 17.8266 0.265275 0.116267 5.33048 0.00972887 10.1091 0.00538652 8.76726 4.69254
9101.00 1292.34 1.070591 52.1575 0.725958 17.8193 0.271079 0.113596 5.33514 0.0095624 10.117 0.00529176 8.87685 4.56867
9001.00 1291.84 1.071684 52.1611 0.72715 17.8116 0.277048 0.110963 5.34004 0.00939746 10.125 0.00519791 8.98778 4.4447
8901.00 1291.34 1.072850 52.1636 0.728367 17.8034 0.283185 0.108367 5.34516 0.00923407 10.1328 0.00510498 9.10003 4.3207
8801.00 1290.83 1.074094 52.1649 0.729607 17.7948 0.289491 0.10581 5.35047 0.00907221 10.1406 0.00501297 9.21356 4.1967
8701.00 1290.32 1.075422 52.1651 0.730863 17.7857 0.29597 0.103293 5.35595 0.00891191 10.1482 0.00492188 9.32833 4.07275
8601.00 1289.80 1.076837 52.1642 0.732131 17.7762 0.302623 0.100817 5.36158 0.00875316 10.1556 0.00483171 9.44432 3.94892
8501.00 1289.27 1.078347 52.1623 0.733405 17.7663 0.30945 0.0983821 5.36733 0.00859598 10.1628 0.00474246 9.56148 3.82525
8401.00 1288.73 1.079958 52.1593 0.734678 17.756 0.316453 0.0959904 5.37317 0.00844037 10.1698 0.00465415 9.67975 3.70182
8301.00 1288.19 1.081675 52.1554 0.735944 17.7453 0.323633 0.0936424 5.37906 0.00828635 10.1764 0.00456677 9.79909 3.57869
8201.00 1287.64 1.083506 52.1507 0.737194 17.7341 0.330988 0.0913393 5.38498 0.00813392 10.1827 0.00448033 9.91942 3.45593
8101.00 1287.07 1.085458 52.1452 0.73842 17.7227 0.338517 0.089082 5.39089 0.0079831 10.1886 0.00439483 10.0407 3.33361
8001.00 1286.50 1.087540 52.139 0.739612 17.7108 0.346219 0.0868717 5.39673 0.0078339 10.194 0.00431028 10.1628 3.2118
7901.00 1285.92 1.089761 52.1321 0.74076 17.6987 0.35409 0.0847095 5.40248 0.00768634 10.1989 0.00422669 10.2857 3.0906
7801.00 1285.33 1.092129 52.1248 0.741853 17.6862 0.362128 0.0825964 5.40808 0.00754043 10.2033 0.00414407 10.4093 2.97007
7701.00 1284.73 1.094655 52.1171 0.742876 17.6734 0.370328 0.0805336 5.41348 0.0073962 10.2071 0.00406242 10.5335 2.85032
7601.00 1284.11 1.097349 52.1091 0.743819 17.6602 0.378684 0.0785223 5.41863 0.00725365 10.2102 0.00398175 10.6581 2.73143
7501.00 1283.48 1.100223 52.101 0.744664 17.6469 0.387189 0.0765635 5.42347 0.00711282 10.2126 0.00390207 10.7832 2.6135
7401.00 1282.84 1.103290 52.0929 0.745396 17.6332 0.395835 0.0746586 5.42794 0.00697372 10.2142 0.0038234 10.9084 2.49664
7301.00 1282.19 1.106561 52.0849 0.745998 17.6194 0.404614 0.0728086 5.43197 0.00683638 10.215 0.00374574 11.0338 2.38094
7201.00 1281.52 1.110050 52.0774 0.746451 17.6053 0.413514 0.0710149 5.4355 0.00670083 10.2148 0.00366911 11.1592 2.26651
7101.00 1280.84 1.113772 52.0703 0.746735 17.591 0.422523 0.0692788 5.43844 0.00656709 10.2137 0.00359353 11.2843 2.15348
7001.00 1280.13 1.117743 52.064 0.746827 17.5766 0.431628 0.0676015 5.44074 0.0064352 10.2116 0.003519 11.4092 2.04195
6901.00 1279.42 1.121977 52.0586 0.746704 17.562 0.440813 0.0659844 5.44229 0.00630518 10.2084 0.00344554 11.5335 1.93206
6801.00 1278.68 1.126490 52.0543 0.746342 17.5472 0.450062 0.0644289 5.44303 0.00617709 10.204 0.00337318 11.6571 1.82393
6701.00 1277.92 1.131299 52.0515 0.745712 17.5324 0.459357 0.0629365 5.44286 0.00605094 10.1985 0.00330192 11.7798 1.71769
6601.00 1277.15 1.136421 52.0503 0.744788 17.5174 0.468676 0.0615087 5.44169 0.00592679 10.1916 0.0032318 11.9014 1.61349
6501.00 1276.35 1.141870 52.0511 0.743538 17.5023 0.477999 0.0601471 5.43942 0.00580467 10.1834 0.00316282 12.0216 1.51146
6401.00 1275.53 1.147661 52.0541 0.741931 17.4872 0.487302 0.0588535 5.43596 0.00568464 10.1738 0.00309502 12.1403 1.41176
6301.00 1274.68 1.153807 52.0596 0.739934 17.472 0.496559 0.0576295 5.4312 0.00556675 10.1628 0.00302843 12.2572 1.31453
6201.00 1273.81 1.160318 52.068 0.737513 17.4567 0.505743 0.0564772 5.42505 0.00545104 10.1502 0.00296306 12.372 1.21994
6101.00 1272.91 1.167201 52.0796 0.73463 17.4413 0.514826 0.0553984 5.41738 0.00533759 10.1361 0.00289894 12.4844 1.12816
6001.00 1271.99 1.174456 52.0947 0.731251 17.4258 0.523778 0.0543955 5.40811 0.00522645 10.1203 0.00283612 12.5942 1.03934
5901.00 1271.03 1.182076 52.1138 0.727339 17.4103 0.532569 0.0534705 5.39711 0.0051177 10.1029 0.00277463 12.701 0.953656
