Title: Depleted MORB Mantle of Workmann & Hart 2005

Phase Masses:
Pressure Temperature mass liquid_0 olivine_0 garnet_0 orthopyroxene_0 clinopyroxene_0 clinopyroxene_1 feldspar_0 spinel_0 
44001.00 1379.39 100.138985 0.000000 59.090537 13.139765 13.816242 13.040829 0.000000 0.000000 1.051611 
43901.00 1379.19 100.138985 0.000000 59.089693 13.129540 13.824428 13.042808 0.000000 0.000000 1.052515 
43801.00 1378.98 100.138985 0.000000 59.088842 13.119242 13.832663 13.044810 0.000000 0.000000 1.053427 
43701.00 1378.77 100.138985 0.000000 59.087984 13.108871 13.840946 13.046836 0.000000 0.000000 1.054347 
43601.00 1378.57 100.138985 0.000000 59.087118 13.098427 13.849279 13.048887 0.000000 0.000000 1.055275 
43501.00 1378.36 100.138985 0.000000 59.086245 13.087908 13.857661 13.050961 0.000000 0.000000 1.056210 
43401.00 1378.16 100.138985 0.000000 59.085364 13.077314 13.866093 13.053061 0.000000 0.000000 1.057154 
43301.00 1377.95 100.138985 0.000000 59.084476 13.066643 13.874575 13.055185 0.000000 0.000000 1.058106 
43201.00 1377.75 100.138985 0.000000 59.083580 13.055896 13.883109 13.057334 0.000000 0.000000 1.059065 
43101.00 1377.54 100.138985 0.000000 59.082676 13.045072 13.891694 13.059509 0.000000 0.000000 1.060034 
43001.00 1377.33 100.138985 0.000000 59.081765 13.034169 13.900331 13.061709 0.000000 0.000000 1.061011 
42901.00 1377.13 100.138985 0.000000 59.080845 13.023187 13.909020 13.063936 0.000000 0.000000 1.061996 
42801.00 1376.92 100.138985 0.000000 59.079917 13.012126 13.917763 13.066188 0.000000 0.000000 1.062990 
42701.00 1376.72 100.138985 0.000000 59.078981 13.000984 13.926559 13.068467 0.000000 0.000000 1.063993 
42601.00 1376.51 100.138985 0.000000 59.078036 12.989760 13.935410 13.070773 0.000000 0.000000 1.065005 
42501.00 1376.30 100.138985 0.000000 59.077083 12.978454 13.944315 13.073106 0.000000 0.000000 1.066027 
42401.00 1376.10 100.138985 0.000000 59.076122 12.967066 13.953275 13.075465 0.000000 0.000000 1.067057 
42301.00 1375.89 100.138985 0.000000 59.075151 12.955593 13.962291 13.077853 0.000000 0.000000 1.068097 
42201.00 1375.69 100.138985 0.000000 59.074172 12.944035 13.971363 13.080268 0.000000 0.000000 1.069146 
42101.00 1375.48 100.138985 0.000000 59.073183 12.932392 13.980493 13.082712 0.000000 0.000000 1.070205 
42001.00 1375.27 100.138985 0.000000 59.072185 12.920662 13.989679 13.085183 0.000000 0.000000 1.071274 
41901.00 1375.07 100.138985 0.000000 59.071178 12.908845 13.998924 13.087684 0.000000 0.000000 1.072353 
41801.00 1374.86 100.138985 0.000000 59.070162 12.896940 14.008228 13.090213 0.000000 0.000000 1.073442 
41701.00 1374.65 100.138985 0.000000 59.069136 12.884945 14.017590 13.092772 0.000000 0.000000 1.074541 
41601.00 1374.45 100.138985 0.000000 59.068100 12.872860 14.027013 13.095360 0.000000 0.000000 1.075651 
41501.00 1374.24 100.138985 0.000000 59.067054 12.860684 14.036496 13.097979 0.000000 0.000000 1.076771 
41401.00 1374.04 100.138985 0.000000 59.065999 12.848416 14.046041 13.100627 0.000000 0.000000 1.077902 
41301.00 1373.83 100.138985 0.000000 59.064933 12.836055 14.055647 13.103306 0.000000 0.000000 1.079044 
41201.00 1373.62 100.138985 0.000000 59.063856 12.823599 14.065316 13.106016 0.000000 0.000000 1.080197 
41101.00 1373.42 100.138985 0.000000 59.062769 12.811049 14.075048 13.108757 0.000000 0.000000 1.081361 
41001.00 1373.21 100.138985 0.000000 59.061672 12.798403 14.084843 13.111530 0.000000 0.000000 1.082537 
40901.00 1373.00 100.138985 0.000000 59.060563 12.785659 14.094704 13.114334 0.000000 0.000000 1.083724 
40801.00 1372.80 100.138985 0.000000 59.059444 12.772818 14.104629 13.117171 0.000000 0.000000 1.084923 
40701.00 1372.59 100.138985 0.000000 59.058313 12.759877 14.114621 13.120040 0.000000 0.000000 1.086134 
40601.00 1372.38 100.138985 0.000000 59.057171 12.746836 14.124679 13.122942 0.000000 0.000000 1.087357 
40501.00 1372.18 100.138985 0.000000 59.056018 12.733693 14.134804 13.125877 0.000000 0.000000 1.088592 
40401.00 1371.97 100.138985 0.000000 59.054852 12.720448 14.144998 13.128846 0.000000 0.000000 1.089840 
40301.00 1371.76 100.138985 0.000000 59.053675 12.707100 14.155260 13.131849 0.000000 0.000000 1.091101 
40201.00 1371.55 100.138985 0.000000 59.052486 12.693646 14.165592 13.134886 0.000000 0.000000 1.092375 
40101.00 1371.35 100.138985 0.000000 59.051284 12.680087 14.175995 13.137958 0.000000 0.000000 1.093661 
40001.00 1371.14 100.138985 0.000000 59.050070 12.666420 14.186469 13.141065 0.000000 0.000000 1.094961 
39901.00 1370.93 100.138985 0.000000 59.048843 12.652645 14.197014 13.144208 0.000000 0.000000 1.096275 
39801.00 1370.73 100.138985 0.000000 59.047603 12.638760 14.207633 13.147386 0.000000 0.000000 1.097602 
39701.00 1370.52 100.138985 0.000000 59.046350 12.624765 14.218326 13.150600 0.000000 0.000000 1.098944 
39601.00 1370.31 100.138985 0.000000 59.045084 12.610658 14.229093 13.153852 0.000000 0.000000 1.100299 
39501.00 1370.10 100.138985 0.000000 59.043804 12.596437 14.239935 13.157140 0.000000 0.000000 1.101669 
39401.00 1369.90 100.138985 0.000000 59.042510 12.582101 14.250854 13.160466 0.000000 0.000000 1.103054 
39301.00 1369.69 100.138985 0.000000 59.041202 12.567650 14.261850 13.163829 0.000000 0.000000 1.104454 
39201.00 1369.48 100.138985 0.000000 59.039880 12.553081 14.272924 13.167231 0.000000 0.000000 1.105869 
39101.00 1369.27 100.138985 0.000000 59.038544 12.538393 14.284077 13.170672 0.000000 0.000000 1.107299 
39001.00 1369.07 100.138985 0.000000 59.037192 12.523585 14.295310 13.174152 0.000000 0.000000 1.108745 
38901.00 1368.86 100.138985 0.000000 59.035826 12.508656 14.306624 13.177671 0.000000 0.000000 1.110207 
38801.00 1368.65 100.138985 0.000000 59.034445 12.493604 14.318020 13.181231 0.000000 0.000000 1.111685 
38701.00 1368.44 100.138985 0.000000 59.033048 12.478427 14.329499 13.184831 0.000000 0.000000 1.113180 
38601.00 1368.23 100.138985 0.000000 59.031635 12.463125 14.341062 13.188472 0.000000 0.000000 1.114691 
38501.00 1368.03 100.138985 0.000000 59.030206 12.447695 14.352709 13.192155 0.000000 0.000000 1.116220 
38401.00 1367.82 100.138985 0.000000 59.028761 12.432136 14.364443 13.195879 0.000000 0.000000 1.117766 
38301.00 1367.61 100.138985 0.000000 59.027299 12.416446 14.376264 13.199646 0.000000 0.000000 1.119329 
38201.00 1367.40 100.138985 0.000000 59.025820 12.400625 14.388172 13.203456 0.000000 0.000000 1.120911 
38101.00 1367.19 100.138985 0.000000 59.024325 12.384670 14.400170 13.207309 0.000000 0.000000 1.122511 
38001.00 1366.99 100.138985 0.000000 59.022811 12.368579 14.412259 13.211207 0.000000 0.000000 1.124129 
37901.00 1366.78 100.138985 0.000000 59.021280 12.352351 14.424439 13.215148 0.000000 0.000000 1.125766 
37801.00 1366.57 100.138985 0.000000 59.019731 12.335985 14.436711 13.219135 0.000000 0.000000 1.127423 
37701.00 1366.36 100.138985 0.000000 59.018163 12.319478 14.449077 13.223167 0.000000 0.000000 1.129099 
37601.00 1366.15 100.138985 0.000000 59.016577 12.302829 14.461539 13.227245 0.000000 0.000000 1.130795 
37501.00 1365.94 100.138985 0.000000 59.014971 12.286036 14.474096 13.231370 0.000000 0.000000 1.132511 
37401.00 1365.73 100.138985 0.000000 59.013346 12.269097 14.486751 13.235542 0.000000 0.000000 1.134248 
37301.00 1365.53 100.138985 0.000000 59.011702 12.252010 14.499505 13.239762 0.000000 0.000000 1.136006 
37201.00 1365.32 100.138985 0.000000 59.010037 12.234773 14.512359 13.244030 0.000000 0.000000 1.137786 
37101.00 1365.11 100.138985 0.000000 59.008351 12.217385 14.525315 13.248346 0.000000 0.000000 1.139587 
37001.00 1364.90 100.138985 0.000000 59.006645 12.199844 14.538373 13.252713 0.000000 0.000000 1.141410 
36901.00 1364.69 100.138985 0.000000 59.004917 12.182147 14.551535 13.257129 0.000000 0.000000 1.143256 
36801.00 1364.48 100.138985 0.000000 59.003168 12.164293 14.564803 13.261596 0.000000 0.000000 1.145125 
36701.00 1364.27 100.138985 0.000000 59.001397 12.146279 14.578178 13.266115 0.000000 0.000000 1.147017 
36601.00 1364.06 100.138985 0.000000 58.999603 12.128103 14.591661 13.270685 0.000000 0.000000 1.148933 
36501.00 1363.85 100.138985 0.000000 58.997787 12.109763 14.605254 13.275308 0.000000 0.000000 1.150873 
36401.00 1363.64 100.138985 0.000000 58.995947 12.091258 14.618958 13.279984 0.000000 0.000000 1.152839 
36301.00 1363.43 100.138985 0.000000 58.994083 12.072584 14.632775 13.284714 0.000000 0.000000 1.154829 
36201.00 1363.22 100.138985 0.000000 58.992195 12.053739 14.646707 13.289499 0.000000 0.000000 1.156845 
36101.00 1363.01 100.138985 0.000000 58.990282 12.034722 14.660755 13.294339 0.000000 0.000000 1.158887 
36001.00 1362.80 100.138985 0.000000 58.988345 12.015529 14.674920 13.299235 0.000000 0.000000 1.160955 
35901.00 1362.59 100.138985 0.000000 58.986382 11.996159 14.689205 13.304187 0.000000 0.000000 1.163051 
35801.00 1362.38 100.138985 0.000000 58.984392 11.976609 14.703611 13.309198 0.000000 0.000000 1.165175 
35701.00 1362.17 100.138985 0.000000 58.982376 11.956876 14.718140 13.314266 0.000000 0.000000 1.167326 
35601.00 1361.96 100.138985 0.000000 58.980333 11.936958 14.732794 13.319393 0.000000 0.000000 1.169506 
35501.00 1361.75 100.138985 0.000000 58.978262 11.916853 14.747574 13.324580 0.000000 0.000000 1.171716 
35401.00 1361.54 100.138985 0.000000 58.976164 11.896557 14.762482 13.329828 0.000000 0.000000 1.173955 
35301.00 1361.33 100.138985 0.000000 58.974036 11.876068 14.777520 13.335136 0.000000 0.000000 1.176225 
35201.00 1361.12 100.138985 0.000000 58.971879 11.855383 14.792690 13.340507 0.000000 0.000000 1.178526 
35101.00 1360.91 100.138985 0.000000 58.969693 11.834499 14.807994 13.345941 0.000000 0.000000 1.180858 
35001.00 1360.70 100.138985 0.000000 58.967475 11.813414 14.823434 13.351438 0.000000 0.000000 1.183223 
34901.00 1360.49 100.138985 0.000000 58.965227 11.792125 14.839012 13.357000 0.000000 0.000000 1.185620 
34801.00 1360.27 100.138985 0.000000 58.962947 11.770628 14.854730 13.362628 0.000000 0.000000 1.188051 
34701.00 1360.06 100.138985 0.000000 58.960635 11.748921 14.870591 13.368322 0.000000 0.000000 1.190516 
34601.00 1359.85 100.138985 0.000000 58.958290 11.727000 14.886595 13.374083 0.000000 0.000000 1.193016 
34501.00 1359.64 100.138985 0.000000 58.955912 11.704863 14.902747 13.379912 0.000000 0.000000 1.195551 
34401.00 1359.43 100.138985 0.000000 58.953499 11.682506 14.919047 13.385811 0.000000 0.000000 1.198123 
34301.00 1359.22 100.138985 0.000000 58.951051 11.659925 14.935498 13.391779 0.000000 0.000000 1.200732 
34201.00 1359.00 100.138985 0.000000 58.948567 11.637118 14.952103 13.397819 0.000000 0.000000 1.203378 
34101.00 1358.79 100.138985 0.000000 58.946047 11.614081 14.968863 13.403930 0.000000 0.000000 1.206063 
34001.00 1358.58 100.138985 0.000000 58.943490 11.590810 14.985782 13.410115 0.000000 0.000000 1.208787 
33901.00 1358.37 100.138985 0.000000 58.940895 11.567303 15.002862 13.416374 0.000000 0.000000 1.211551 
33801.00 1358.15 100.138985 0.000000 58.938261 11.543554 15.020106 13.422707 0.000000 0.000000 1.214357 
33701.00 1357.94 100.138985 0.000000 58.935587 11.519561 15.037515 13.429118 0.000000 0.000000 1.217203 
33601.00 1357.73 100.138985 0.000000 58.932874 11.495320 15.055093 13.435605 0.000000 0.000000 1.220093 
33501.00 1357.52 100.138985 0.000000 58.930119 11.470826 15.072843 13.442171 0.000000 0.000000 1.223026 
33401.00 1357.30 100.138985 0.000000 58.927322 11.446077 15.090767 13.448816 0.000000 0.000000 1.226003 
33301.00 1357.09 100.138985 0.000000 58.924482 11.421067 15.108868 13.455542 0.000000 0.000000 1.229026 
33201.00 1356.88 100.138985 0.000000 58.921598 11.395792 15.127149 13.462350 0.000000 0.000000 1.232095 
33101.00 1356.66 100.138985 0.000000 58.918669 11.370249 15.145613 13.469241 0.000000 0.000000 1.235212 
33001.00 1356.45 100.138985 0.000000 58.915695 11.344433 15.164264 13.476217 0.000000 0.000000 1.238376 
32901.00 1356.24 100.138985 0.000000 58.912674 11.318340 15.183103 13.483278 0.000000 0.000000 1.241590 
32801.00 1356.02 100.138985 0.000000 58.909605 11.291964 15.202135 13.490426 0.000000 0.000000 1.244854 
32701.00 1355.81 100.138985 0.000000 58.906488 11.265302 15.221363 13.497662 0.000000 0.000000 1.248170 
32601.00 1355.59 100.138985 0.000000 58.903320 11.238349 15.240790 13.504988 0.000000 0.000000 1.251538 
32501.00 1355.38 100.138985 0.000000 58.900102 11.211099 15.260419 13.512404 0.000000 0.000000 1.254960 
32401.00 1355.16 100.138985 0.000000 58.896832 11.183548 15.280255 13.519913 0.000000 0.000000 1.258437 
32301.00 1354.95 100.138985 0.000000 58.893509 11.155691 15.300300 13.527516 0.000000 0.000000 1.261969 
32201.00 1354.73 100.138985 0.000000 58.890131 11.127523 15.320558 13.535214 0.000000 0.000000 1.265559 
32101.00 1354.52 100.138985 0.000000 58.886698 11.099038 15.341033 13.543008 0.000000 0.000000 1.269208 
32001.00 1354.30 100.138985 0.000000 58.883208 11.070231 15.361729 13.550901 0.000000 0.000000 1.272916 
31901.00 1354.09 100.138985 0.000000 58.879660 11.041096 15.382650 13.558894 0.000000 0.000000 1.276685 
31801.00 1353.87 100.138985 0.000000 58.876053 11.011628 15.403799 13.566988 0.000000 0.000000 1.280517 
31701.00 1353.66 100.138985 0.000000 58.872386 10.981821 15.425182 13.575185 0.000000 0.000000 1.284412 
31601.00 1353.44 100.138985 0.000000 58.868656 10.951668 15.446801 13.583486 0.000000 0.000000 1.288373 
31501.00 1353.22 100.138985 0.000000 58.864863 10.921165 15.468662 13.591894 0.000000 0.000000 1.292400 
31401.00 1353.01 100.138985 0.000000 58.861005 10.890304 15.490769 13.600410 0.000000 0.000000 1.296496 
31301.00 1352.79 100.138985 0.000000 58.857082 10.859080 15.513126 13.609036 0.000000 0.000000 1.300662 
31201.00 1352.57 100.138985 0.000000 58.853090 10.827485 15.535738 13.617774 0.000000 0.000000 1.304898 
31101.00 1352.36 100.138985 0.000000 58.849029 10.795513 15.558609 13.626625 0.000000 0.000000 1.309208 
31001.00 1352.14 100.138985 0.000000 58.844897 10.763158 15.581746 13.635591 0.000000 0.000000 1.313592 
30901.00 1351.92 100.138985 0.000000 58.840693 10.730412 15.605151 13.644675 0.000000 0.000000 1.318053 
30801.00 1351.70 100.138985 0.000000 58.836415 10.697268 15.628832 13.653879 0.000000 0.000000 1.322592 
30701.00 1351.49 100.138985 0.000000 58.832060 10.663719 15.652792 13.663203 0.000000 0.000000 1.327210 
30601.00 1351.27 100.138985 0.000000 58.827628 10.629758 15.677037 13.672652 0.000000 0.000000 1.331910 
30501.00 1351.05 100.138985 0.000000 58.823117 10.595375 15.701573 13.682225 0.000000 0.000000 1.336694 
30401.00 1350.83 100.138985 0.000000 58.818524 10.560565 15.726405 13.691927 0.000000 0.000000 1.341563 
30301.00 1350.61 100.138985 0.000000 58.813848 10.525318 15.751539 13.701759 0.000000 0.000000 1.346520 
30201.00 1350.39 100.138985 0.000000 58.809087 10.489627 15.776981 13.711723 0.000000 0.000000 1.351566 
30101.00 1350.17 100.138985 0.000000 58.804239 10.453483 15.802737 13.721822 0.000000 0.000000 1.356704 
30001.00 1349.95 100.138985 0.000000 58.799302 10.416877 15.828812 13.732058 0.000000 0.000000 1.361936 
29901.00 1349.73 100.138985 0.000000 58.794273 10.379800 15.855215 13.742434 0.000000 0.000000 1.367263 
29801.00 1349.51 100.138985 0.000000 58.789151 10.342243 15.881949 13.752951 0.000000 0.000000 1.372689 
29701.00 1349.29 100.138985 0.000000 58.783933 10.304198 15.909024 13.763614 0.000000 0.000000 1.378216 
29601.00 1349.07 100.138985 0.000000 58.778617 10.265654 15.936445 13.774423 0.000000 0.000000 1.383845 
29501.00 1348.85 100.138985 0.000000 58.773201 10.226601 15.964219 13.785383 0.000000 0.000000 1.389580 
29401.00 1348.63 100.138985 0.000000 58.767682 10.187029 15.992354 13.796496 0.000000 0.000000 1.395423 
29301.00 1348.41 100.138985 0.000000 58.762058 10.146929 16.020856 13.807764 0.000000 0.000000 1.401377 
29201.00 1348.19 100.138985 0.000000 58.756326 10.106290 16.049734 13.819191 0.000000 0.000000 1.407444 
29101.00 1347.97 100.138985 0.000000 58.750484 10.065100 16.078995 13.830780 0.000000 0.000000 1.413626 
29001.00 1347.74 100.138985 0.000000 58.744528 10.023348 16.108647 13.842534 0.000000 0.000000 1.419928 
28901.00 1347.52 100.138985 0.000000 58.738457 9.981024 16.138698 13.854455 0.000000 0.000000 1.426351 
28801.00 1347.30 100.138985 0.000000 58.732266 9.938115 16.169157 13.866548 0.000000 0.000000 1.432899 
28701.00 1347.07 100.138985 0.000000 58.725955 9.894609 16.200032 13.878815 0.000000 0.000000 1.439575 
28601.00 1346.85 100.138985 0.000000 58.719518 9.850494 16.231331 13.891260 0.000000 0.000000 1.446381 
28501.00 1346.63 100.138985 0.000000 58.712954 9.805758 16.263065 13.903886 0.000000 0.000000 1.453322 
28401.00 1346.40 100.138985 0.000000 58.706259 9.760387 16.295242 13.916697 0.000000 0.000000 1.460400 
28301.00 1346.18 100.138985 0.000000 58.699430 9.714368 16.327871 13.929698 0.000000 0.000000 1.467618 
28201.00 1345.95 100.138985 0.000000 58.692463 9.667687 16.360963 13.942890 0.000000 0.000000 1.474981 
28101.00 1345.73 100.138985 0.000000 58.685355 9.620330 16.394528 13.956279 0.000000 0.000000 1.482492 
28001.00 1345.50 100.138985 0.000000 58.678103 9.572283 16.428575 13.969869 0.000000 0.000000 1.490155 
27901.00 1345.27 100.138985 0.000000 58.670703 9.523531 16.463115 13.983663 0.000000 0.000000 1.497973 
27801.00 1345.05 100.138985 0.000000 58.663150 9.474058 16.498160 13.997666 0.000000 0.000000 1.505950 
27701.00 1344.82 100.138985 0.000000 58.655442 9.423849 16.533720 14.011883 0.000000 0.000000 1.514091 
27601.00 1344.59 100.138985 0.000000 58.647574 9.372888 16.569807 14.026317 0.000000 0.000000 1.522399 
27501.00 1344.37 100.138985 0.000000 58.639543 9.321159 16.606432 14.040973 0.000000 0.000000 1.530879 
27401.00 1344.14 100.138985 0.000000 58.631343 9.268643 16.643608 14.055856 0.000000 0.000000 1.539535 
27301.00 1343.91 100.138985 0.000000 58.622971 9.215324 16.681346 14.070971 0.000000 0.000000 1.548372 
27201.00 1343.68 100.138985 0.000000 58.614422 9.161184 16.719661 14.086324 0.000000 0.000000 1.557394 
27101.00 1343.45 100.138985 0.000000 58.605691 9.106204 16.758565 14.101918 0.000000 0.000000 1.566607 
27001.00 1343.22 100.138985 0.000000 58.596774 9.050365 16.798071 14.117760 0.000000 0.000000 1.576015 
26901.00 1342.99 100.138985 0.000000 58.587667 8.993648 16.838194 14.133854 0.000000 0.000000 1.585623 
26801.00 1342.76 100.138985 0.000000 58.578363 8.936032 16.878947 14.150207 0.000000 0.000000 1.595436 
26701.00 1342.53 100.138985 0.000000 58.568858 8.877496 16.920346 14.166825 0.000000 0.000000 1.605460 
26601.00 1342.30 100.138985 0.000000 58.559146 8.818020 16.962405 14.183713 0.000000 0.000000 1.615701 
26501.00 1342.07 100.138985 0.000000 58.549222 8.757581 17.005141 14.200877 0.000000 0.000000 1.626164 
26401.00 1341.83 100.138985 0.000000 58.539081 8.696156 17.048569 14.218325 0.000000 0.000000 1.636855 
26301.00 1341.60 100.138985 0.000000 58.528716 8.633722 17.092705 14.236062 0.000000 0.000000 1.647780 
26201.00 1341.37 100.138985 0.000000 58.518121 8.570256 17.137568 14.254095 0.000000 0.000000 1.658946 
26101.00 1341.13 100.138985 0.000000 58.507290 8.505731 17.183174 14.272431 0.000000 0.000000 1.670359 
26001.00 1340.90 100.138985 0.000000 58.496216 8.440124 17.229541 14.291078 0.000000 0.000000 1.682025 
25901.00 1340.66 100.138985 0.000000 58.484894 8.373406 17.276689 14.310043 0.000000 0.000000 1.693953 
25801.00 1340.43 100.138985 0.000000 58.473316 8.305552 17.324636 14.329333 0.000000 0.000000 1.706148 
25701.00 1340.19 100.138985 0.000000 58.461475 8.236532 17.373402 14.348957 0.000000 0.000000 1.718618 
25601.00 1339.96 100.138985 0.000000 58.449364 8.166318 17.423009 14.368923 0.000000 0.000000 1.731372 
25501.00 1339.72 100.138985 0.000000 58.436974 8.094880 17.473476 14.389239 0.000000 0.000000 1.744416 
25401.00 1339.48 100.138985 0.000000 58.424300 8.022187 17.524825 14.409914 0.000000 0.000000 1.757759 
