Title: Depleted MORB Mantle of Workmann & Hart 2005

System Thermodynamic Data:
Pressure Temperature mass F phi S H V Cp dVdP*10^6 dVdT*10^6 fO2(absolute) fO2(absolute) rhol rhos viscosity aH2O chisqr
44001.00 1328.06 100.138999 0.0000000000000000 0.000000 247.473399 -1160859.846272 30.073857 124.335060 -19.878613 1411.617006 -6.417 -6.417 0.000000 3.329769 0.000 0 0.000
43901.00 1327.86 100.138999 0.0000000000000000 0.000000 247.473399 -1161160.594462 30.075781 124.341374 -19.885610 1411.550606 -6.422 -6.422 0.000000 3.329556 0.000 0 0.000
43801.00 1327.67 100.138999 0.0000000000000000 0.000000 247.473399 -1161461.361899 30.077707 124.347689 -19.892613 1411.484347 -6.426 -6.426 0.000000 3.329343 0.000 0 0.000
43701.00 1327.47 100.138999 0.0000000000000000 0.000000 247.473399 -1161762.148604 30.079635 124.354003 -19.899620 1411.418232 -6.431 -6.431 0.000000 3.329130 0.000 0 0.000
43601.00 1327.28 100.138999 0.0000000000000000 0.000000 247.473399 -1162062.954599 30.081565 124.360317 -19.906631 1411.352261 -6.436 -6.436 0.000000 3.328916 0.000 0 0.000
43501.00 1327.08 100.138999 0.0000000000000000 0.000000 247.473399 -1162363.779905 30.083497 124.366632 -19.913647 1411.286436 -6.441 -6.441 0.000000 3.328702 0.000 0 0.000
43401.00 1326.89 100.138999 0.0000000000000000 0.000000 247.473399 -1162664.624543 30.085431 124.372947 -19.920668 1411.220758 -6.445 -6.445 0.000000 3.328488 0.000 0 0.000
43301.00 1326.69 100.138999 0.0000000000000000 0.000000 247.473399 -1162965.488535 30.087368 124.379262 -19.927694 1411.155228 -6.450 -6.450 0.000000 3.328274 0.000 0 0.000
43201.00 1326.50 100.138999 0.0000000000000000 0.000000 247.473399 -1163266.371903 30.089306 124.385577 -19.934724 1411.089847 -6.455 -6.455 0.000000 3.328059 0.000 0 0.000
43101.00 1326.30 100.138999 0.0000000000000000 0.000000 247.473399 -1163567.274669 30.091247 124.391892 -19.941760 1411.024616 -6.460 -6.460 0.000000 3.327845 0.000 0 0.000
43001.00 1326.10 100.138999 0.0000000000000000 0.000000 247.473399 -1163868.196855 30.093190 124.398208 -19.948800 1410.959538 -6.464 -6.464 0.000000 3.327630 0.000 0 0.000
42901.00 1325.91 100.138999 0.0000000000000000 0.000000 247.473399 -1164169.138484 30.095136 124.404524 -19.955845 1410.894612 -6.469 -6.469 0.000000 3.327415 0.000 0 0.000
42801.00 1325.71 100.138999 0.0000000000000000 0.000000 247.473399 -1164470.099576 30.097083 124.410840 -19.962895 1410.829841 -6.474 -6.474 0.000000 3.327199 0.000 0 0.000
42701.00 1325.52 100.138999 0.0000000000000000 0.000000 247.473399 -1164771.080157 30.099033 124.417157 -19.969950 1410.765225 -6.479 -6.479 0.000000 3.326984 0.000 0 0.000
42601.00 1325.32 100.138999 0.0000000000000000 0.000000 247.473399 -1165072.080246 30.100985 124.423473 -19.977011 1410.700767 -6.484 -6.484 0.000000 3.326768 0.000 0 0.000
42501.00 1325.13 100.138999 0.0000000000000000 0.000000 247.473399 -1165373.099869 30.102940 124.429791 -19.984076 1410.636466 -6.488 -6.488 0.000000 3.326552 0.000 0 0.000
42401.00 1324.93 100.138999 0.0000000000000000 0.000000 247.473399 -1165674.139047 30.104896 124.436108 -19.991147 1410.572326 -6.493 -6.493 0.000000 3.326336 0.000 0 0.000
42301.00 1324.73 100.138999 0.0000000000000000 0.000000 247.473399 -1165975.197804 30.106855 124.442426 -19.998223 1410.508347 -6.498 -6.498 0.000000 3.326120 0.000 0 0.000
42201.00 1324.54 100.138999 0.0000000000000000 0.000000 247.473399 -1166276.276163 30.108817 124.448745 -20.005304 1410.444530 -6.503 -6.503 0.000000 3.325903 0.000 0 0.000
42101.00 1324.34 100.138999 0.0000000000000000 0.000000 247.473399 -1166577.374147 30.110781 124.455063 -20.012390 1410.380877 -6.508 -6.508 0.000000 3.325686 0.000 0 0.000
42001.00 1324.15 100.138999 0.0000000000000000 0.000000 247.473399 -1166878.491781 30.112747 124.461383 -20.019482 1410.317390 -6.513 -6.513 0.000000 3.325469 0.000 0 0.000
41901.00 1323.95 100.138999 0.0000000000000000 0.000000 247.473399 -1167179.629087 30.114715 124.467702 -20.026579 1410.254069 -6.518 -6.518 0.000000 3.325251 0.000 0 0.000
41801.00 1323.76 100.138999 0.0000000000000000 0.000000 247.473399 -1167480.786091 30.116686 124.474023 -20.033681 1410.190917 -6.523 -6.523 0.000000 3.325034 0.000 0 0.000
41701.00 1323.56 100.138999 0.0000000000000000 0.000000 247.473399 -1167781.962815 30.118659 124.480344 -20.040790 1410.127935 -6.528 -6.528 0.000000 3.324816 0.000 0 0.000
41601.00 1323.36 100.138999 0.0000000000000000 0.000000 247.473399 -1168083.159284 30.120635 124.486665 -20.047903 1410.065124 -6.533 -6.533 0.000000 3.324598 0.000 0 0.000
41501.00 1323.17 100.138999 0.0000000000000000 0.000000 247.473399 -1168384.375522 30.122613 124.492987 -20.055023 1410.002486 -6.538 -6.538 0.000000 3.324380 0.000 0 0.000
41401.00 1322.97 100.138999 0.0000000000000000 0.000000 247.473399 -1168685.611555 30.124594 124.499309 -20.062148 1409.940023 -6.543 -6.543 0.000000 3.324161 0.000 0 0.000
41301.00 1322.78 100.138999 0.0000000000000000 0.000000 247.473399 -1168986.867407 30.126577 124.505633 -20.069278 1409.877736 -6.548 -6.548 0.000000 3.323942 0.000 0 0.000
41201.00 1322.58 100.138999 0.0000000000000000 0.000000 247.473399 -1169288.143103 30.128563 124.511956 -20.076415 1409.815626 -6.553 -6.553 0.000000 3.323723 0.000 0 0.000
41101.00 1322.38 100.138999 0.0000000000000000 0.000000 247.473399 -1169589.438668 30.130551 124.518281 -20.083557 1409.753696 -6.558 -6.558 0.000000 3.323504 0.000 0 0.000
41001.00 1322.19 100.138999 0.0000000000000000 0.000000 247.473399 -1169890.754127 30.132541 124.524606 -20.090706 1409.691947 -6.563 -6.563 0.000000 3.323284 0.000 0 0.000
40901.00 1321.99 100.138999 0.0000000000000000 0.000000 247.473399 -1170192.089506 30.134535 124.530932 -20.097860 1409.630381 -6.568 -6.568 0.000000 3.323064 0.000 0 0.000
40801.00 1321.79 100.138999 0.0000000000000000 0.000000 247.473399 -1170493.444831 30.136531 124.537259 -20.105020 1409.568999 -6.573 -6.573 0.000000 3.322844 0.000 0 0.000
40701.00 1321.60 100.138999 0.0000000000000000 0.000000 247.473399 -1170794.820127 30.138529 124.543587 -20.112186 1409.507803 -6.578 -6.578 0.000000 3.322624 0.000 0 0.000
40601.00 1321.40 100.138999 0.0000000000000000 0.000000 247.473399 -1171096.215421 30.140530 124.549915 -20.119359 1409.446795 -6.583 -6.583 0.000000 3.322403 0.000 0 0.000
40501.00 1321.21 100.138999 0.0000000000000000 0.000000 247.473399 -1171397.630739 30.142534 124.556244 -20.126538 1409.385977 -6.588 -6.588 0.000000 3.322183 0.000 0 0.000
40401.00 1321.01 100.138999 0.0000000000000000 0.000000 247.473399 -1171699.066106 30.144540 124.562574 -20.133722 1409.325351 -6.593 -6.593 0.000000 3.321961 0.000 0 0.000
40301.00 1320.81 100.138999 0.0000000000000000 0.000000 247.473399 -1172000.521551 30.146549 124.568905 -20.140914 1409.264918 -6.599 -6.599 0.000000 3.321740 0.000 0 0.000
40201.00 1320.62 100.138999 0.0000000000000000 0.000000 247.473399 -1172301.997100 30.148561 124.575237 -20.148111 1409.204680 -6.604 -6.604 0.000000 3.321518 0.000 0 0.000
40101.00 1320.42 100.138999 0.0000000000000000 0.000000 247.473399 -1172603.492780 30.150575 124.581570 -20.155315 1409.144639 -6.609 -6.609 0.000000 3.321296 0.000 0 0.000
40001.00 1320.22 100.138999 0.0000000000000000 0.000000 247.473399 -1172905.008618 30.152593 124.587904 -20.162526 1409.084798 -6.614 -6.614 0.000000 3.321074 0.000 0 0.000
39901.00 1320.03 100.138999 0.0000000000000000 0.000000 247.473399 -1173206.544642 30.154613 124.594239 -20.169743 1409.025157 -6.619 -6.619 0.000000 3.320852 0.000 0 0.000
39801.00 1319.83 100.138999 0.0000000000000000 0.000000 247.473399 -1173508.100879 30.156635 124.600575 -20.176967 1408.965720 -6.625 -6.625 0.000000 3.320629 0.000 0 0.000
39701.00 1319.63 100.138999 0.0000000000000000 0.000000 247.473399 -1173809.677358 30.158661 124.606912 -20.184197 1408.906487 -6.630 -6.630 0.000000 3.320406 0.000 0 0.000
39601.00 1319.44 100.138999 0.0000000000000000 0.000000 247.473399 -1174111.274106 30.160689 124.613250 -20.191434 1408.847462 -6.635 -6.635 0.000000 3.320183 0.000 0 0.000
39501.00 1319.24 100.138999 0.0000000000000000 0.000000 247.473399 -1174412.891153 30.162721 124.619590 -20.198679 1408.788645 -6.640 -6.640 0.000000 3.319959 0.000 0 0.000
39401.00 1319.04 100.138999 0.0000000000000000 0.000000 247.473399 -1174714.528526 30.164755 124.625930 -20.205930 1408.730040 -6.646 -6.646 0.000000 3.319735 0.000 0 0.000
39301.00 1318.85 100.138999 0.0000000000000000 0.000000 247.473399 -1175016.186255 30.166792 124.632272 -20.213188 1408.671648 -6.651 -6.651 0.000000 3.319511 0.000 0 0.000
39201.00 1318.65 100.138999 0.0000000000000000 0.000000 247.473399 -1175317.864369 30.168832 124.638615 -20.220453 1408.613472 -6.656 -6.656 0.000000 3.319287 0.000 0 0.000
39101.00 1318.45 100.138999 0.0000000000000000 0.000000 247.473399 -1175619.562896 30.170874 124.644959 -20.227725 1408.555514 -6.662 -6.662 0.000000 3.319062 0.000 0 0.000
39001.00 1318.25 100.138999 0.0000000000000000 0.000000 247.473399 -1175921.281868 30.172920 124.651305 -20.235004 1408.497776 -6.667 -6.667 0.000000 3.318837 0.000 0 0.000
38901.00 1318.06 100.138999 0.0000000000000000 0.000000 247.473399 -1176223.021312 30.174969 124.657652 -20.242291 1408.440260 -6.672 -6.672 0.000000 3.318611 0.000 0 0.000
38801.00 1317.86 100.138999 0.0000000000000000 0.000000 247.473399 -1176524.781261 30.177021 124.664001 -20.249585 1408.382968 -6.678 -6.678 0.000000 3.318386 0.000 0 0.000
38701.00 1317.66 100.138999 0.0000000000000000 0.000000 247.473399 -1176826.561743 30.179076 124.670351 -20.256886 1408.325904 -6.683 -6.683 0.000000 3.318160 0.000 0 0.000
38601.00 1317.47 100.138999 0.0000000000000000 0.000000 247.473399 -1177128.362790 30.181134 124.676702 -20.264195 1408.269069 -6.689 -6.689 0.000000 3.317934 0.000 0 0.000
38501.00 1317.27 100.138999 0.0000000000000000 0.000000 247.473399 -1177430.184433 30.183195 124.683055 -20.271512 1408.212466 -6.694 -6.694 0.000000 3.317707 0.000 0 0.000
38401.00 1317.07 100.138999 0.0000000000000000 0.000000 247.473399 -1177732.026702 30.185259 124.689410 -20.278836 1408.156097 -6.700 -6.700 0.000000 3.317480 0.000 0 0.000
38301.00 1316.87 100.138999 0.0000000000000000 0.000000 247.473399 -1178033.889629 30.187327 124.695766 -20.286168 1408.099964 -6.705 -6.705 0.000000 3.317253 0.000 0 0.000
38201.00 1316.68 100.138999 0.0000000000000000 0.000000 247.473399 -1178335.773246 30.189397 124.702124 -20.293508 1408.044071 -6.710 -6.710 0.000000 3.317025 0.000 0 0.000
38101.00 1316.48 100.138999 0.0000000000000000 0.000000 247.473399 -1178637.677585 30.191471 124.708483 -20.300856 1407.988420 -6.716 -6.716 0.000000 3.316798 0.000 0 0.000
38001.00 1316.28 100.138999 0.0000000000000000 0.000000 247.473399 -1178939.602677 30.193548 124.714844 -20.308211 1407.933014 -6.722 -6.722 0.000000 3.316569 0.000 0 0.000
37901.00 1316.08 100.138999 0.0000000000000000 0.000000 247.473399 -1179241.548557 30.195628 124.721207 -20.315575 1407.877855 -6.727 -6.727 0.000000 3.316341 0.000 0 0.000
37801.00 1315.89 100.138999 0.0000000000000000 0.000000 247.473399 -1179543.515256 30.197712 124.727572 -20.322947 1407.822945 -6.733 -6.733 0.000000 3.316112 0.000 0 0.000
37701.00 1315.69 100.138999 0.0000000000000000 0.000000 247.473399 -1179845.502807 30.199799 124.733939 -20.330328 1407.768289 -6.738 -6.738 0.000000 3.315883 0.000 0 0.000
37601.00 1315.49 100.138999 0.0000000000000000 0.000000 247.473399 -1180147.511245 30.201889 124.740308 -20.337716 1407.713888 -6.744 -6.744 0.000000 3.315653 0.000 0 0.000
37501.00 1315.29 100.138999 0.0000000000000000 0.000000 247.473399 -1180449.540603 30.203983 124.746678 -20.345114 1407.659745 -6.749 -6.749 0.000000 3.315424 0.000 0 0.000
37401.00 1315.09 100.138999 0.0000000000000000 0.000000 247.473399 -1180751.590914 30.206080 124.753051 -20.352519 1407.605864 -6.755 -6.755 0.000000 3.315193 0.000 0 0.000
37301.00 1314.90 100.138999 0.0000000000000000 0.000000 247.473399 -1181053.662215 30.208181 124.759426 -20.359934 1407.552247 -6.761 -6.761 0.000000 3.314963 0.000 0 0.000
37201.00 1314.70 100.138999 0.0000000000000000 0.000000 247.473399 -1181355.754538 30.210285 124.765803 -20.367357 1407.498897 -6.766 -6.766 0.000000 3.314732 0.000 0 0.000
37101.00 1314.50 100.138999 0.0000000000000000 0.000000 247.473399 -1181657.867920 30.212392 124.772182 -20.374789 1407.445817 -6.772 -6.772 0.000000 3.314501 0.000 0 0.000
37001.00 1314.30 100.138999 0.0000000000000000 0.000000 247.473399 -1181960.002396 30.214503 124.778563 -20.382230 1407.393011 -6.778 -6.778 0.000000 3.314269 0.000 0 0.000
36901.00 1314.10 100.138999 0.0000000000000000 0.000000 247.473399 -1182262.158001 30.216618 124.784947 -20.389680 1407.340482 -6.784 -6.784 0.000000 3.314037 0.000 0 0.000
36801.00 1313.91 100.138999 0.0000000000000000 0.000000 247.473399 -1182564.334772 30.218737 124.791332 -20.397139 1407.288233 -6.789 -6.789 0.000000 3.313805 0.000 0 0.000
36701.00 1313.71 100.138999 0.0000000000000000 0.000000 247.473399 -1182866.532745 30.220859 124.797721 -20.404607 1407.236266 -6.795 -6.795 0.000000 3.313572 0.000 0 0.000
36601.00 1313.51 100.138999 0.0000000000000000 0.000000 247.473399 -1183168.751957 30.222984 124.804111 -20.412085 1407.184587 -6.801 -6.801 0.000000 3.313339 0.000 0 0.000
36501.00 1313.31 100.138999 0.0000000000000000 0.000000 247.473399 -1183470.992446 30.225114 124.810505 -20.419573 1407.133197 -6.807 -6.807 0.000000 3.313106 0.000 0 0.000
36401.00 1313.11 100.138999 0.0000000000000000 0.000000 247.473399 -1183773.254248 30.227247 124.816900 -20.427069 1407.082101 -6.812 -6.812 0.000000 3.312872 0.000 0 0.000
36301.00 1312.91 100.138999 0.0000000000000000 0.000000 247.473399 -1184075.537402 30.229384 124.823299 -20.434576 1407.031301 -6.818 -6.818 0.000000 3.312638 0.000 0 0.000
36201.00 1312.71 100.138999 0.0000000000000000 0.000000 247.473399 -1184377.841947 30.231525 124.829700 -20.442092 1406.980802 -6.824 -6.824 0.000000 3.312403 0.000 0 0.000
36101.00 1312.52 100.138999 0.0000000000000000 0.000000 247.473399 -1184680.167921 30.233670 124.836104 -20.449619 1406.930608 -6.830 -6.830 0.000000 3.312168 0.000 0 0.000
36001.00 1312.32 100.138999 0.0000000000000000 0.000000 247.473399 -1184982.515363 30.235819 124.842510 -20.457155 1406.880721 -6.836 -6.836 0.000000 3.311933 0.000 0 0.000
35901.00 1312.12 100.138999 0.0000000000000000 0.000000 247.473399 -1185284.884313 30.237972 124.848920 -20.464702 1406.831146 -6.842 -6.842 0.000000 3.311697 0.000 0 0.000
35801.00 1311.92 100.138999 0.0000000000000000 0.000000 247.473399 -1185587.274810 30.240129 124.855332 -20.472259 1406.781887 -6.848 -6.848 0.000000 3.311461 0.000 0 0.000
35701.00 1311.72 100.138999 0.0000000000000000 0.000000 247.473399 -1185889.686897 30.242289 124.861748 -20.479826 1406.732947 -6.854 -6.854 0.000000 3.311224 0.000 0 0.000
35601.00 1311.52 100.138999 0.0000000000000000 0.000000 247.473399 -1186192.120612 30.244454 124.868166 -20.487404 1406.684331 -6.860 -6.860 0.000000 3.310987 0.000 0 0.000
35501.00 1311.32 100.138999 0.0000000000000000 0.000000 247.473399 -1186494.575998 30.246624 124.874588 -20.494992 1406.636043 -6.866 -6.866 0.000000 3.310750 0.000 0 0.000
35401.00 1311.12 100.138999 0.0000000000000000 0.000000 247.473399 -1186797.053096 30.248797 124.881013 -20.502592 1406.588086 -6.872 -6.872 0.000000 3.310512 0.000 0 0.000
35301.00 1310.92 100.138999 0.0000000000000000 0.000000 247.473399 -1187099.551949 30.250974 124.887441 -20.510202 1406.540466 -6.878 -6.878 0.000000 3.310274 0.000 0 0.000
35201.00 1310.72 100.138999 0.0000000000000000 0.000000 247.473399 -1187402.072599 30.253156 124.893872 -20.517824 1406.493186 -6.884 -6.884 0.000000 3.310035 0.000 0 0.000
35101.00 1310.52 100.138999 0.0000000000000000 0.000000 247.473399 -1187704.615090 30.255343 124.900307 -20.525456 1406.446251 -6.890 -6.890 0.000000 3.309796 0.000 0 0.000
35001.00 1310.32 100.138999 0.0000000000000000 0.000000 247.473399 -1188007.179465 30.257533 124.906746 -20.533100 1406.399665 -6.896 -6.896 0.000000 3.309556 0.000 0 0.000
34901.00 1310.12 100.138999 0.0000000000000000 0.000000 247.473399 -1188309.765769 30.259728 124.913188 -20.540756 1406.353434 -6.902 -6.902 0.000000 3.309316 0.000 0 0.000
34801.00 1309.92 100.138999 0.0000000000000000 0.000000 247.473399 -1188612.374045 30.261928 124.919634 -20.548423 1406.307561 -6.908 -6.908 0.000000 3.309075 0.000 0 0.000
34701.00 1309.72 100.138999 0.0000000000000000 0.000000 247.473399 -1188915.004340 30.264132 124.926083 -20.556102 1406.262052 -6.915 -6.915 0.000000 3.308834 0.000 0 0.000
34601.00 1309.52 100.138999 0.0000000000000000 0.000000 247.473399 -1189217.656699 30.266341 124.932537 -20.563793 1406.216911 -6.921 -6.921 0.000000 3.308593 0.000 0 0.000
34501.00 1309.32 100.138999 0.0000000000000000 0.000000 247.473399 -1189520.331169 30.268554 124.938994 -20.571496 1406.172143 -6.927 -6.927 0.000000 3.308351 0.000 0 0.000
34401.00 1309.12 100.138999 0.0000000000000000 0.000000 247.473399 -1189823.027795 30.270772 124.945455 -20.579211 1406.127754 -6.933 -6.933 0.000000 3.308109 0.000 0 0.000
34301.00 1308.92 100.138999 0.0000000000000000 0.000000 247.473399 -1190125.746626 30.272995 124.951921 -20.586939 1406.083748 -6.940 -6.940 0.000000 3.307866 0.000 0 0.000
34201.00 1308.72 100.138999 0.0000000000000000 0.000000 247.473399 -1190428.487710 30.275223 124.958390 -20.594679 1406.040131 -6.946 -6.946 0.000000 3.307622 0.000 0 0.000
34101.00 1308.52 100.138999 0.0000000000000000 0.000000 247.473399 -1190731.251095 30.277455 124.964864 -20.602433 1405.996909 -6.952 -6.952 0.000000 3.307378 0.000 0 0.000
34001.00 1308.32 100.138999 0.0000000000000000 0.000000 247.473399 -1191034.036830 30.279693 124.971343 -20.610199 1405.954086 -6.959 -6.959 0.000000 3.307134 0.000 0 0.000
33901.00 1308.12 100.138999 0.0000000000000000 0.000000 247.473399 -1191336.844965 30.281935 124.977825 -20.617978 1405.911669 -6.965 -6.965 0.000000 3.306889 0.000 0 0.000
33801.00 1307.92 100.138999 0.0000000000000000 0.000000 247.473399 -1191639.675551 30.284183 124.984313 -20.625770 1405.869663 -6.971 -6.971 0.000000 3.306644 0.000 0 0.000
33701.00 1307.72 100.138999 0.0000000000000000 0.000000 247.473399 -1191942.528638 30.286435 124.990805 -20.633576 1405.828074 -6.978 -6.978 0.000000 3.306398 0.000 0 0.000
33601.00 1307.52 100.138999 0.0000000000000000 0.000000 247.473399 -1192245.404277 30.288693 124.997302 -20.641396 1405.786908 -6.984 -6.984 0.000000 3.306151 0.000 0 0.000
33501.00 1307.31 100.138999 0.0000000000000000 0.000000 247.473399 -1192548.302523 30.290957 125.003804 -20.649229 1405.746171 -6.991 -6.991 0.000000 3.305904 0.000 0 0.000
33401.00 1307.11 100.138999 0.0000000000000000 0.000000 247.473399 -1192851.223426 30.293225 125.010311 -20.657077 1405.705870 -6.997 -6.997 0.000000 3.305657 0.000 0 0.000
33301.00 1306.91 100.138999 0.0000000000000000 0.000000 247.473399 -1193154.167042 30.295499 125.016823 -20.664939 1405.666010 -7.004 -7.004 0.000000 3.305408 0.000 0 0.000
33201.00 1306.71 100.138999 0.0000000000000000 0.000000 247.473399 -1193457.133424 30.297778 125.023340 -20.672815 1405.626599 -7.010 -7.010 0.000000 3.305160 0.000 0 0.000
33101.00 1306.51 100.138999 0.0000000000000000 0.000000 247.473399 -1193760.122627 30.300063 125.029863 -20.680706 1405.587642 -7.017 -7.017 0.000000 3.304911 0.000 0 0.000
33001.00 1306.31 100.138999 0.0000000000000000 0.000000 247.473399 -1194063.134708 30.302354 125.036391 -20.688611 1405.549147 -7.023 -7.023 0.000000 3.304661 0.000 0 0.000
32901.00 1306.10 100.138999 0.0000000000000000 0.000000 247.473399 -1194366.169723 30.304650 125.042924 -20.696532 1405.511121 -7.030 -7.030 0.000000 3.304410 0.000 0 0.000
32801.00 1305.90 100.138999 0.0000000000000000 0.000000 247.473399 -1194669.227729 30.306952 125.049464 -20.704468 1405.473571 -7.037 -7.037 0.000000 3.304159 0.000 0 0.000
