Title: Depleted MORB Mantle of Workmann & Hart 2005

liquid_0 thermodynamic data and composition:
Pressure Temperature mass S H V Cp viscosity SiO2 TiO2 Al2O3 Fe2O3 Cr2O3 FeO MnO MgO NiO CaO Na2O
13001.00 1283.45 0.023780 0.067677 -287.164604 0.008818 0.036306 2.104 51.8536 0.665695 18.3108 0.0928555 0.300028 4.66636 0.0170759 8.7185 0.00945601 4.40441 10.9613
12901.00 1283.11 0.061929 0.176162 -748.390779 0.022970 0.094552 2.115 51.9102 0.664696 18.3225 0.094135 0.295476 4.65865 0.016857 8.71763 0.00933125 4.45662 10.8539
12801.00 1282.78 0.100693 0.286295 -1217.740640 0.037357 0.153744 2.125 51.9663 0.663735 18.334 0.0954466 0.290958 4.65114 0.0166395 8.71702 0.0092074 4.50964 10.7459
12701.00 1282.44 0.140096 0.398138 -1695.512461 0.051989 0.213917 2.136 52.0219 0.662814 18.3451 0.0967915 0.286473 4.64383 0.0164236 8.71667 0.00908445 4.56348 10.6375
12601.00 1282.10 0.180163 0.511756 -2182.019117 0.066875 0.275109 2.146 52.0769 0.661932 18.3558 0.0981708 0.282023 4.63672 0.0162092 8.71659 0.00896241 4.61816 10.5285
12501.00 1281.76 0.220920 0.627220 -2677.588905 0.082024 0.337361 2.157 52.1312 0.661091 18.3663 0.0995857 0.277607 4.62981 0.0159963 8.71676 0.00884128 4.6737 10.4191
12401.00 1281.42 0.262393 0.744602 -3182.566464 0.097446 0.400712 2.167 52.185 0.66029 18.3764 0.101038 0.273226 4.62312 0.0157848 8.71721 0.00872104 4.73011 10.3091
12301.00 1281.08 0.304612 0.863979 -3697.313719 0.113153 0.465209 2.177 52.2382 0.659529 18.3862 0.102527 0.268879 4.61664 0.0155749 8.71792 0.00860172 4.7874 10.1986
12201.00 1280.73 0.347607 0.985429 -4222.210908 0.129154 0.530895 2.188 52.2907 0.658811 18.3956 0.104057 0.264568 4.61037 0.0153665 8.71891 0.00848329 4.84559 10.0875
12101.00 1280.38 0.391408 1.109038 -4757.657664 0.145462 0.597820 2.198 52.3425 0.658133 18.4047 0.105627 0.260292 4.60432 0.0151595 8.72016 0.00836577 4.90469 9.97598
12001.00 1280.03 0.436049 1.234893 -5304.074161 0.162089 0.666036 2.208 52.3937 0.657498 18.4135 0.10724 0.256052 4.59848 0.0149541 8.72169 0.00824914 4.96473 9.86391
11901.00 1279.68 0.481565 1.363089 -5861.902350 0.179047 0.735594 2.218 52.4442 0.656905 18.4219 0.108897 0.251847 4.59287 0.0147501 8.7235 0.00813341 5.02571 9.75134
11801.00 1279.33 0.527992 1.493722 -6431.607250 0.196352 0.806551 2.228 52.494 0.656354 18.4299 0.110599 0.247679 4.58748 0.0145477 8.72557 0.00801858 5.08765 9.63825
11701.00 1278.97 0.575369 1.626896 -7013.678342 0.214016 0.878968 2.238 52.543 0.655846 18.4376 0.112348 0.243548 4.58232 0.0143467 8.72792 0.00790465 5.15057 9.52465
11601.00 1278.61 0.623738 1.762719 -7608.631031 0.232054 0.952905 2.248 52.5913 0.655382 18.4449 0.114146 0.239453 4.57738 0.0141473 8.73055 0.00779161 5.21449 9.41055
11501.00 1278.25 0.673139 1.901305 -8217.008218 0.250484 1.028429 2.257 52.6388 0.65496 18.4518 0.115994 0.235396 4.57267 0.0139493 8.73345 0.00767947 5.27941 9.29594
11401.00 1277.89 0.723620 2.042774 -8839.381951 0.269321 1.105610 2.267 52.6855 0.654583 18.4583 0.117895 0.231376 4.56819 0.0137529 8.73662 0.00756821 5.34535 9.18084
11301.00 1277.52 0.775226 2.187254 -9476.355188 0.288583 1.184519 2.277 52.7314 0.654249 18.4645 0.11985 0.227394 4.56395 0.0135579 8.74006 0.00745784 5.41233 9.06525
11201.00 1277.15 0.828009 2.334876 -10128.563661 0.308288 1.265235 2.286 52.7765 0.653959 18.4703 0.121861 0.22345 4.55994 0.0133644 8.74377 0.00734836 5.48037 8.94917
11101.00 1276.77 0.882021 2.485783 -10796.677855 0.328457 1.347838 2.296 52.8207 0.653713 18.4757 0.12393 0.219545 4.55616 0.0131724 8.74775 0.00723977 5.54947 8.83261
11001.00 1276.40 0.937318 2.640122 -11481.405100 0.349109 1.432413 2.305 52.8641 0.653511 18.4806 0.126059 0.215678 4.55261 0.0129819 8.752 0.00713206 5.61965 8.71558
10901.00 1276.01 0.993958 2.798049 -12183.491782 0.370267 1.519052 2.314 52.9067 0.653354 18.4852 0.128251 0.211852 4.5493 0.0127928 8.7565 0.00702523 5.69092 8.59809
10801.00 1275.63 1.052004 2.959730 -12903.725680 0.391954 1.607849 2.324 52.9483 0.65324 18.4894 0.130507 0.208065 4.54623 0.0126053 8.76127 0.00691928 5.7633 8.48014
10701.00 1275.24 1.059680 2.979572 -13006.622812 0.394875 1.619669 2.333 52.9889 0.653179 18.4932 0.132832 0.204305 4.54347 0.0124192 8.76638 0.00681424 5.83693 8.36156
10601.00 1274.86 1.059759 2.978024 -13016.302042 0.394962 1.619880 2.342 53.0285 0.653174 18.4965 0.135227 0.200571 4.54104 0.0122347 8.77187 0.00671011 5.91186 8.24231
10501.00 1274.47 1.059855 2.976503 -13026.139470 0.395053 1.620120 2.351 53.0669 0.653224 18.4995 0.137696 0.196863 4.53894 0.0120517 8.77773 0.00660688 5.9881 8.1224
10401.00 1274.07 1.059969 2.975012 -13036.145324 0.395148 1.620388 2.359 53.1042 0.653331 18.502 0.140241 0.193182 4.5372 0.0118702 8.78397 0.00650456 6.06569 8.00182
10301.00 1273.68 1.060102 2.973552 -13046.330597 0.395246 1.620686 2.368 53.1404 0.653496 18.504 0.142865 0.189526 4.5358 0.0116902 8.79058 0.00640314 6.14466 7.88058
10201.00 1273.28 1.060254 2.972127 -13056.707015 0.395349 1.621017 2.377 53.1753 0.65372 18.5057 0.145572 0.185898 4.53475 0.0115117 8.79757 0.00630261 6.22502 7.75866
10101.00 1272.89 1.060428 2.970739 -13067.287131 0.395456 1.621381 2.385 53.209 0.654005 18.5069 0.148365 0.182298 4.53407 0.0113346 8.80494 0.00620297 6.30681 7.63608
10001.00 1272.49 1.060623 2.969391 -13078.084381 0.395568 1.621782 2.393 53.2415 0.654351 18.5076 0.151247 0.178725 4.53376 0.0111591 8.81269 0.00610423 6.39005 7.51283
9901.00 1272.08 1.060842 2.968085 -13089.113150 0.395686 1.622219 2.401 53.2727 0.65476 18.5079 0.154222 0.17518 4.53381 0.0109851 8.82082 0.00600637 6.47477 7.38891
9801.00 1271.68 1.061085 2.966826 -13100.388852 0.395809 1.622697 2.409 53.3025 0.655232 18.5077 0.157294 0.171663 4.53425 0.0108125 8.82932 0.00590939 6.561 7.26433
9701.00 1271.27 1.061354 2.965615 -13111.928006 0.395938 1.623217 2.417 53.331 0.655769 18.507 0.160465 0.168176 4.53507 0.0106415 8.8382 0.00581329 6.64877 7.13909
9601.00 1270.86 1.061651 2.964458 -13123.748325 0.396074 1.623781 2.425 53.3581 0.656372 18.5058 0.163741 0.164718 4.53628 0.0104719 8.84745 0.00571807 6.73809 7.0132
9501.00 1270.45 1.061977 2.963358 -13135.868811 0.396218 1.624392 2.432 53.3838 0.657041 18.5042 0.167126 0.16129 4.53788 0.0103037 8.85706 0.00562373 6.82899 6.88665
9401.00 1270.03 1.062333 2.962319 -13148.309859 0.396369 1.625052 2.440 53.4081 0.657777 18.502 0.170623 0.157892 4.53988 0.0101371 8.86704 0.00553025 6.92151 6.75946
9301.00 1269.62 1.062723 2.961345 -13161.093370 0.396529 1.625765 2.447 53.4309 0.658582 18.4994 0.174237 0.154525 4.54228 0.00997187 8.87739 0.00543764 7.01565 6.63164
9201.00 1269.20 1.063148 2.960443 -13174.242874 0.396697 1.626534 2.454 53.4522 0.659457 18.4962 0.177973 0.151189 4.54508 0.00980812 8.88808 0.00534589 7.11145 6.50318
9101.00 1268.77 1.063609 2.959616 -13187.783646 0.396876 1.627361 2.460 53.472 0.660402 18.4925 0.181835 0.147885 4.5483 0.00964583 8.89912 0.00525501 7.20894 6.37412
9001.00 1268.34 1.064110 2.958872 -13201.742923 0.397065 1.628250 2.467 53.4902 0.661417 18.4883 0.185829 0.144614 4.55192 0.00948498 8.91049 0.00516497 7.30812 6.24444
8901.00 1267.91 1.064652 2.958215 -13216.149930 0.397266 1.629205 2.474 53.5068 0.662504 18.4836 0.189959 0.141376 4.55596 0.00932558 8.92219 0.0050758 7.40901 6.11418
8801.00 1267.48 1.065238 2.957652 -13231.036178 0.397480 1.630230 2.480 53.5219 0.663663 18.4783 0.194229 0.138171 4.56041 0.00916762 8.9342 0.00498747 7.51165 5.98335
8701.00 1267.04 1.065872 2.957190 -13246.435632 0.397706 1.631329 2.486 53.5353 0.664894 18.4725 0.198647 0.135001 4.56528 0.0090111 8.94652 0.00489999 7.61604 5.85197
8601.00 1266.60 1.066555 2.956838 -13262.384831 0.397948 1.632507 2.492 53.547 0.666198 18.4661 0.203216 0.131866 4.57056 0.00885601 8.95912 0.00481335 7.72219 5.72005
8501.00 1266.15 1.067292 2.956603 -13278.923243 0.398205 1.633768 2.498 53.5571 0.667574 18.4592 0.207943 0.128767 4.57625 0.00870236 8.97199 0.00472756 7.83012 5.58762
8401.00 1265.70 1.068085 2.956494 -13296.093411 0.398479 1.635118 2.503 53.5656 0.669022 18.4517 0.212833 0.125704 4.58235 0.00855013 8.98511 0.00464261 7.93984 5.45472
8301.00 1265.24 1.068939 2.956521 -13313.941255 0.398771 1.636562 2.508 53.5723 0.670543 18.4436 0.217891 0.122679 4.58886 0.00839933 8.99847 0.00455849 8.05134 5.32135
8201.00 1264.78 1.069857 2.956693 -13332.516432 0.399084 1.638107 2.514 53.5773 0.672135 18.435 0.223122 0.119691 4.59577 0.00824996 9.01203 0.00447521 8.16464 5.18757
8101.00 1264.32 1.070844 2.957023 -13351.872555 0.399418 1.639758 2.519 53.5807 0.673797 18.4258 0.228534 0.116743 4.60306 0.00810201 9.02577 0.00439277 8.27973 5.0534
8001.00 1263.84 1.071904 2.957521 -13372.067630 0.399775 1.641523 2.523 53.5823 0.675527 18.4161 0.234131 0.113835 4.61074 0.00795549 9.03967 0.00431116 8.39661 4.91888
7901.00 1263.37 1.073043 2.958202 -13393.164426 0.400157 1.643409 2.528 53.5822 0.677326 18.4057 0.239918 0.110967 4.6188 0.00781039 9.05369 0.00423038 8.51525 4.78406
7801.00 1262.88 1.074265 2.959079 -13415.230892 0.400566 1.645424 2.532 53.5805 0.679189 18.3948 0.245902 0.108141 4.62721 0.00766672 9.06781 0.00415043 8.63566 4.64898
7701.00 1262.40 1.075576 2.960167 -13438.340676 0.401005 1.647577 2.536 53.577 0.681115 18.3834 0.252087 0.105358 4.63597 0.00752447 9.08198 0.00407131 8.7578 4.5137
7601.00 1261.90 1.076983 2.961483 -13462.573553 0.401475 1.649878 2.541 53.5719 0.6831 18.3714 0.258478 0.102619 4.64505 0.00738365 9.09617 0.00399302 8.88164 4.37826
7501.00 1261.40 1.078493 2.963044 -13488.016100 0.401980 1.652336 2.544 53.5652 0.685141 18.3588 0.26508 0.099924 4.65444 0.00724427 9.11035 0.00391557 9.00716 4.24273
7401.00 1260.89 1.080113 2.964870 -13514.762233 0.402522 1.654962 2.548 53.557 0.687234 18.3456 0.271898 0.0972755 4.6641 0.00710633 9.12445 0.00383894 9.13432 4.10717
7301.00 1260.37 1.081850 2.966982 -13542.913935 0.403105 1.657769 2.552 53.5471 0.689373 18.332 0.278936 0.0946741 4.67403 0.00696983 9.13845 0.00376316 9.26306 3.97166
7201.00 1259.84 1.083714 2.969403 -13572.581934 0.403731 1.660768 2.555 53.5358 0.691552 18.3177 0.286196 0.092121 4.68418 0.00683478 9.15229 0.00368821 9.39332 3.83626
7101.00 1259.31 1.085713 2.972157 -13603.886564 0.404405 1.663974 2.558 53.5231 0.693765 18.303 0.293683 0.0896173 4.69452 0.00670119 9.16591 0.0036141 9.52505 3.70105
7001.00 1258.77 1.087857 2.975271 -13636.958586 0.405130 1.667403 2.561 53.5091 0.696004 18.2877 0.301398 0.0871644 4.70501 0.00656906 9.17925 0.00354084 9.65816 3.56613
6901.00 1258.21 1.090159 2.978774 -13671.940119 0.405911 1.671069 2.564 53.4938 0.698261 18.2719 0.309343 0.0847635 4.71562 0.00643842 9.19227 0.00346842 9.79257 3.43158
6801.00 1257.65 1.092628 2.982697 -13708.985630 0.406752 1.674991 2.567 53.4773 0.700525 18.2557 0.317518 0.082416 4.72629 0.00630926 9.20489 0.00339686 9.92819 3.2975
6701.00 1257.07 1.095279 2.987074 -13748.262960 0.407659 1.679189 2.570 53.4598 0.702786 18.2389 0.325922 0.0801231 4.73698 0.00618161 9.21706 0.00332616 10.0649 3.16399
6601.00 1256.49 1.098124 2.991943 -13789.954413 0.408636 1.683682 2.573 53.4414 0.70503 18.2218 0.334556 0.0778862 4.74763 0.00605548 9.2287 0.00325632 10.2026 3.03117
6501.00 1255.89 1.101180 2.997344 -13834.257840 0.409691 1.688493 2.576 53.4222 0.707244 18.2041 0.343414 0.0757067 4.75818 0.00593089 9.23974 0.00318736 10.3412 2.89914
6401.00 1255.28 1.104462 3.003319 -13881.387731 0.410829 1.693648 2.578 53.4024 0.709413 18.1861 0.352494 0.073586 4.76856 0.00580785 9.2501 0.00311929 10.4804 2.76804
6301.00 1254.65 1.107987 3.009916 -13931.576244 0.412058 1.699171 2.581 53.3821 0.711519 18.1677 0.361789 0.0715257 4.77872 0.00568639 9.25972 0.0030521 10.6202 2.63798
6201.00 1254.01 1.111776 3.017185 -13985.074114 0.413385 1.705091 2.584 53.3616 0.713542 18.1489 0.371293 0.0695272 4.78855 0.00556654 9.2685 0.00298583 10.7604 2.50911
6101.00 1253.35 1.115847 3.025180 -14042.151350 0.414818 1.711439 2.587 53.3411 0.715463 18.1298 0.380995 0.067592 4.798 0.00544831 9.27638 0.00292046 10.9008 2.38157
6001.00 1252.68 1.120223 3.033960 -14103.097593 0.416366 1.718248 2.590 53.3207 0.717257 18.1103 0.390885 0.0657218 4.80696 0.00533174 9.28326 0.00285603 11.0411 2.25551
5901.00 1251.99 1.124927 3.043586 -14168.221970 0.418038 1.725552 2.593 53.3008 0.718898 18.0906 0.40095 0.0639181 4.81535 0.00521685 9.28907 0.00279255 11.1813 2.13109
5801.00 1251.28 1.129983 3.054122 -14237.852177 0.419845 1.733388 2.596 53.2817 0.72036 18.0706 0.411173 0.0621826 4.82306 0.00510369 9.29371 0.00273002 11.3209 2.00846
5701.00 1250.55 1.135417 3.065639 -14312.332544 0.421797 1.741795 2.599 53.2635 0.72161 18.0504 0.421538 0.0605172 4.82999 0.00499228 9.2971 0.00266847 11.4599 1.88781
5601.00 1249.80 1.141256 3.078205 -14392.020586 0.423904 1.750812 2.603 53.2467 0.722617 18.0299 0.432023 0.0589235 4.83602 0.00488266 9.29915 0.00260792 11.5978 1.76931
5501.00 1249.02 1.147526 3.091893 -14477.281548 0.426177 1.760479 2.607 53.2316 0.723344 18.0093 0.442605 0.0574037 4.84104 0.00477489 9.29977 0.00254839 11.7345 1.65316
5401.00 1248.22 1.154254 3.106774 -14568.480219 0.428628 1.770837 2.611 53.2185 0.723752 17.9885 0.45326 0.0559595 4.84491 0.004669 9.29887 0.0024899 11.8696 1.53955
5301.00 1247.40 1.161466 3.122916 -14665.969179 0.431268 1.781923 2.616 53.2079 0.723799 17.9675 0.463959 0.0545934 4.84752 0.00456505 9.29637 0.00243247 12.0027 1.42868
5201.00 1246.54 1.169184 3.140380 -14770.072285 0.434106 1.793772 2.621 53.2001 0.723442 17.9464 0.47467 0.0533074 4.84871 0.0044631 9.29218 0.00237614 12.1335 1.32077
5101.00 1245.66 1.177428 3.159217 -14881.062241 0.437152 1.806412 2.627 53.1957 0.722633 17.9251 0.485359 0.0521041 4.84836 0.0043632 9.28621 0.00232094 12.2617 1.21604
5001.00 1244.74 1.186210 3.179459 -14999.130696 0.440410 1.819859 2.634 53.1952 0.721323 17.9037 0.495991 0.0509861 4.84631 0.00426543 9.27838 0.00226689 12.3868 1.11472
4901.00 1243.79 1.195532 3.201115 -15124.349375 0.443884 1.834116 2.641 53.1989 0.719461 17.8822 0.506527 0.049956 4.84242 0.00416985 9.26861 0.00221403 12.5085 1.01705
4801.00 1242.81 1.205384 3.224155 -15256.620905 0.447572 1.849166 2.649 53.2076 0.716995 17.8604 0.516924 0.049017 4.83654 0.00407655 9.25683 0.00216241 12.6262 0.923269
4701.00 1241.78 1.215735 3.248504 -15395.618493 0.451466 1.864960 2.657 53.2216 0.713872 17.8384 0.527141 0.048172 4.82853 0.00398561 9.24297 0.00211206 12.7396 0.833614
4601.00 1240.72 1.226535 3.274025 -15540.714744 0.455547 1.881418 2.667 53.2417 0.71004 17.8161 0.537134 0.0474243 4.81825 0.00389713 9.22698 0.00206304 12.8481 0.748327
4501.00 1239.62 1.237699 3.300502 -15690.901938 0.459787 1.898410 2.677 53.2682 0.705452 17.7934 0.546859 0.0467771 4.80558 0.00381121 9.2088 0.0020154 12.9514 0.667643
4401.00 1238.47 1.249109 3.327623 -15844.708986 0.464144 1.915751 2.688 53.3019 0.700062 17.7703 0.556271 0.0462336 4.7904 0.00372796 9.1884 0.00196919 13.049 0.591779
4301.00 1237.28 1.260604 3.354968 -16000.124443 0.468562 1.933194 2.701 53.3431 0.693835 17.7465 0.56533 0.0457968 4.77264 0.0036475 9.16578 0.00192448 13.1405 0.520933
4201.00 1236.05 1.271976 3.381995 -16154.539522 0.472964 1.950419 2.715 53.3925 0.686741 17.7219 0.573998 0.0454694 4.75223 0.00356994 9.14094 0.00188132 13.2255 0.455269
4101.00 1234.78 1.282972 3.408039 -16304.729466 0.477258 1.967034 2.729 53.4504 0.678765 17.6963 0.582241 0.0452535 4.72915 0.00349541 9.11391 0.00183978 13.3037 0.394909
4001.00 1233.46 1.293293 3.432322 -16446.893562 0.481334 1.982579 2.746 53.5171 0.669906 17.6695 0.590032 0.0451504 4.70344 0.00342404 9.08478 0.00179993 13.3749 0.339919
3901.00 1232.10 1.302605 3.453976 -16576.771641 0.485068 1.996545 2.763 53.5929 0.660179 17.6412 0.597353 0.0451604 4.67516 0.00335595 9.05364 0.00176184 13.4389 0.290303
3801.00 1230.71 1.310558 3.472086 -16689.845719 0.488330 2.008393 2.781 53.6779 0.649617 17.6112 0.604191 0.0452825 4.64445 0.00329125 9.02063 0.00172556 13.4958 0.245988
3701.00 1229.29 1.316803 3.485751 -16781.619402 0.490990 2.017590 2.801 53.7719 0.638271 17.5791 0.610546 0.0455139 4.6115 0.00323005 8.98594 0.00169116 13.5455 0.206829
3601.00 1227.84 1.321023 3.494148 -16847.947464 0.492925 2.023652 2.821 53.8749 0.626208 17.5446 0.616425 0.0458505 4.57654 0.00317245 8.94976 0.00165869 13.5884 0.172601
3501.00 1226.37 1.322955 3.496601 -16885.369950 0.494036 2.026179 2.843 53.9864 0.613511 17.5073 0.621843 0.0462863 4.53985 0.00311851 8.91235 0.00162819 13.6247 0.143011
3401.00 1224.89 1.322414 3.492638 -16891.396430 0.494249 2.024891 2.865 54.1061 0.600273 17.467 0.626821 0.0468138 4.50174 0.00306831 8.87396 0.00159969 13.655 0.117707
3301.00 1223.40 1.319307 3.482027 -16864.691888 0.493525 2.019649 2.889 54.2334 0.586595 17.4233 0.631386 0.0474238 4.46254 0.00302187 8.83488 0.00157322 13.6796 0.0962969
3201.00 1221.91 1.313635 3.464784 -16805.136145 0.491859 2.010459 2.912 54.3676 0.572579 17.3759 0.635564 0.0481062 4.42259 0.00297924 8.79537 0.0015488 13.6993 0.0783612
3101.00 1220.44 1.305488 3.441161 -16713.756316 0.489280 1.997468 2.937 54.5083 0.558329 17.3246 0.639384 0.04885 4.38222 0.00294042 8.75573 0.00152643 13.7146 0.0634765
3001.00 1218.98 1.295035 3.411605 -16592.557669 0.485845 1.980934 2.962 54.6547 0.543943 17.2692 0.642873 0.0496437 4.34174 0.00290541 8.71622 0.00150612 13.726 0.0512287
2901.00 1217.54 1.282498 3.376710 -16444.294034 0.481632 1.961206 2.987 54.8063 0.529514 17.2093 0.646056 0.0504755 4.30143 0.0028742 8.67708 0.00148785 13.7342 0.0412275
2801.00 1216.12 1.268139 3.337168 -16272.221545 0.476736 1.938688 3.012 54.9624 0.515128 17.1449 0.648952 0.051334 4.26156 0.00284678 8.63855 0.00147163 13.7397 0.0331151
2701.00 1214.74 1.252241 3.293721 -16079.871535 0.471258 1.913817 3.037 55.1226 0.500861 17.0759 0.65158 0.052208 4.22234 0.00282313 8.60082 0.00145744 13.7428 0.026572
2601.00 1213.40 1.235090 3.247121 -15870.864640 0.465302 1.887035 3.063 55.2864 0.486783 17.0021 0.653954 0.0530872 4.18396 0.00280325 8.56409 0.00144526 13.7441 0.0213192
2501.00 1212.10 1.216968 3.198108 -15648.773961 0.458972 1.858776 3.088 55.4533 0.472952 16.9234 0.656088 0.0539618 4.14657 0.0027871 8.52849 0.00143509 13.7439 0.0171179
2401.00 1210.84 1.198144 3.147384 -15417.034030 0.452366 1.829453 3.113 55.6231 0.459421 16.8398 0.657991 0.0548231 4.1103 0.00277466 8.49417 0.00142691 13.7425 0.0137666
2301.00 1209.63 1.178872 3.095610 -15178.885699 0.445578 1.799458 3.138 55.7953 0.446234 16.7513 0.659673 0.0556633 4.07525 0.00276593 8.46125 0.0014207 13.7401 0.0110982
2201.00 1208.47 1.159387 3.043395 -14937.344584 0.438696 1.769149 3.162 55.9697 0.433427 16.6579 0.661145 0.0564755 4.04148 0.00276088 8.42981 0.00141645 13.7369 0.00897523
2101.00 1207.35 1.139902 2.991298 -14695.181684 0.431800 1.738855 3.186 56.1461 0.421031 16.5596 0.662415 0.0572539 4.00905 0.00275948 8.39993 0.00141413 13.7332 0.00728627
2001.00 1206.28 1.120612 2.939819 -14454.907896 0.424962 1.708873 3.210 56.3243 0.409066 16.4565 0.663493 0.0579936 3.978 0.00276172 8.37168 0.00141374 13.7289 0.00594146
1901.00 1205.25 1.101688 2.889400 -14218.758102 0.418247 1.679466 3.233 56.504 0.397547 16.3487 0.66439 0.0586908 3.94834 0.00276756 8.3451 0.00141525 13.7242 0.00486893
1801.00 1204.28 1.083278 2.840424 -13988.674308 0.411713 1.650859 3.256 56.6852 0.386483 16.2362 0.665116 0.0593424 3.92007 0.00277698 8.32022 0.00141865 13.7191 0.00401156
1701.00 1203.34 1.065507 2.793208 -13766.290307 0.405405 1.623241 3.278 56.8677 0.375873 16.1192 0.665684 0.0599464 3.89319 0.00278995 8.29707 0.00142389 13.7138 0.00332413
1601.00 1202.45 1.048473 2.748005 -13552.921669 0.399364 1.596764 3.300 57.0513 0.365716 15.9979 0.666104 0.0605014 3.86768 0.00280644 8.27566 0.00143098 13.7081 0.00277097
1501.00 1201.61 1.032252 2.705003 -13349.564748 0.393618 1.571540 3.322 57.236 0.355999 15.8722 0.666386 0.0610067 3.84352 0.00282642 8.25599 0.00143989 13.7022 0.00232401
