Title: Depleted MORB Mantle of Workmann & Hart 2005

System Thermodynamic Data:
Pressure Temperature mass F phi S H V Cp dVdP*10^6 dVdT*10^6 fO2(absolute) fO2(absolute) rhol rhos viscosity aH2O chisqr
5601.00 1216.57 97.952744 0.0000000000000000 0.000000 239.361352 -1253731.810524 30.510878 123.844899 -23.254703 1368.878161 -9.233 -9.233 0.000000 3.210420 0.000 0 0.000
5501.00 1215.90 97.952744 0.0017381058304293 0.002114 239.361352 -1254036.973304 30.521786 123.892712 -23.530826 1370.643244 -9.952 -9.952 2.638142 3.210483 3.111 0 0.000
5401.00 1215.20 97.952744 0.0036164187883106 0.004397 239.361352 -1254342.248483 30.533365 123.944026 -23.829801 1372.541552 -9.906 -9.906 2.638436 3.210572 3.116 0 0.000
5301.00 1214.46 97.952744 0.0056350728638943 0.006848 239.361352 -1254647.642982 30.545657 123.998839 -24.152013 1374.570648 -9.861 -9.861 2.638697 3.210682 3.122 0 0.000
5201.00 1213.69 97.952744 0.0077941683581064 0.009467 239.361352 -1254953.164135 30.558703 124.057145 -24.497850 1376.727917 -9.817 -9.817 2.638924 3.210810 3.128 0 0.000
5101.00 1212.89 97.952744 0.0100938525468190 0.012254 239.361352 -1255258.819680 30.572542 124.118944 -24.867712 1379.010672 -9.773 -9.773 2.639112 3.210952 3.134 0 0.000
5001.00 1212.05 97.943458 0.0124394898550887 0.015094 239.336360 -1255445.895819 30.583676 124.170054 -25.243802 1381.200590 -9.730 -9.730 2.639260 3.211106 3.141 0 0.000
4901.00 1211.18 97.702112 0.0125528246390766 0.015231 238.687483 -1252664.577471 30.507265 123.870255 -25.188286 1378.139221 -9.689 -9.689 2.639391 3.211296 3.148 0 0.000
4801.00 1210.30 97.450176 0.0126630441652122 0.015365 238.010829 -1249745.337946 30.427227 123.556890 -25.128304 1374.949766 -9.649 -9.649 2.639508 3.211518 3.155 0 0.000
4701.00 1209.38 97.188041 0.0127698534131413 0.015495 237.307510 -1246692.987150 30.343708 123.230443 -25.064052 1371.637692 -9.609 -9.609 2.639610 3.211772 3.162 0 0.000
4601.00 1208.45 96.916125 0.0128729372257083 0.015621 236.578715 -1243512.715938 30.256863 122.891439 -24.995728 1368.208774 -9.571 -9.571 2.639700 3.212053 3.170 0 0.000
4501.00 1207.49 96.634879 0.0129719632073139 0.015741 235.825710 -1240210.112781 30.166856 122.540437 -24.923535 1364.669103 -9.534 -9.534 2.639778 3.212359 3.177 0 0.000
4401.00 1206.51 96.344782 0.0130665871237325 0.015857 235.049842 -1236791.176074 30.073864 122.178041 -24.847682 1361.025100 -9.498 -9.498 2.639848 3.212689 3.185 0 0.000
4301.00 1205.51 96.046348 0.0131564617931312 0.015967 234.252539 -1233262.319039 29.978069 121.804890 -24.768388 1357.283512 -9.463 -9.463 2.639910 3.213038 3.192 0 0.000
4201.00 1204.50 95.740119 0.0132412507496857 0.016071 233.435304 -1229630.363023 29.879668 121.421669 -24.685877 1353.451409 -9.429 -9.429 2.639968 3.213405 3.200 0 0.000
4101.00 1203.47 95.426667 0.0133206483672414 0.016169 232.599717 -1225902.513491 29.778864 121.029095 -24.600392 1349.536161 -9.396 -9.396 2.640024 3.213787 3.208 0 0.000
4001.00 1202.42 95.106588 0.0133944081975921 0.016260 231.747418 -1222086.311104 29.675872 120.627924 -24.512189 1345.545402 -9.365 -9.365 2.640080 3.214180 3.216 0 0.000
3901.00 1201.37 94.780496 0.0134623814457797 0.016344 230.880089 -1218189.548318 29.570912 120.218933 -24.421548 1341.486958 -9.334 -9.334 2.640139 3.214582 3.224 0 0.000
3801.00 1200.30 94.449015 0.0135245674725654 0.016421 229.999433 -1214220.139834 29.464210 119.802917 -24.328774 1337.368750 -9.303 -9.303 2.640202 3.214989 3.232 0 0.000
3701.00 1199.22 94.112761 0.0135811772043343 0.016491 229.107127 -1210185.933256 29.355990 119.380667 -24.234205 1333.198638 -9.274 -9.274 2.640273 3.215398 3.239 0 0.000
3601.00 1198.13 93.772322 0.0136327094944337 0.016555 228.204773 -1206094.445635 29.246470 118.952944 -24.138217 1328.984220 -9.246 -9.246 2.640351 3.215805 3.247 0 0.000
3501.00 1197.03 93.428234 0.0136800379151605 0.016614 227.293822 -1201952.511950 29.135855 118.520452 -24.041229 1324.732545 -9.218 -9.218 2.640437 3.216207 3.255 0 0.000
3401.00 1195.93 93.080941 0.0137245030025486 0.016669 226.375487 -1197765.835083 29.024321 118.083789 -23.943703 1320.449754 -9.191 -9.191 2.640531 3.216600 3.262 0 0.000
3301.00 1194.82 92.730759 0.0137680013298219 0.016723 225.450629 -1193538.433215 28.912007 117.643399 -23.846148 1316.140624 -9.165 -9.165 2.640628 3.216983 3.270 0 0.000
3201.00 1193.71 92.377820 0.0138130597318425 0.016779 224.519627 -1189271.991227 28.798993 117.199509 -23.749110 1311.808030 -9.140 -9.140 2.640724 3.217350 3.277 0 0.000
3101.00 1192.58 92.022020 0.0138628810755707 0.016840 223.582233 -1184965.136705 28.685287 116.752059 -23.653158 1307.452321 -9.115 -9.115 2.640810 3.217702 3.285 0 0.000
3001.00 1191.44 91.662959 0.0139213478608367 0.016912 222.637424 -1180612.677157 28.570798 116.300625 -23.558869 1303.070652 -9.091 -9.091 2.640877 3.218036 3.292 0 0.000
2901.00 1190.38 91.299886 0.0135920938807062 0.016513 221.683252 -1176204.850086 28.455007 115.834813 -23.410334 1298.258985 -9.060 -9.060 2.641022 3.218099 3.299 0 0.000
2801.00 1189.39 90.968616 0.0132410228771650 0.016085 220.813732 -1172205.083989 28.351740 115.408756 -23.277460 1293.750591 -9.022 -9.022 2.641203 3.217848 3.304 0 0.000
2701.00 1188.35 90.670806 0.0134482097848710 0.016335 220.032976 -1168635.586390 28.262378 115.038215 -23.243730 1290.112454 -8.985 -8.985 2.641215 3.217596 3.311 0 0.000
2601.00 1187.27 90.354996 0.0136652525383864 0.016598 219.206003 -1164830.668925 28.167485 114.644898 -23.207468 1286.257261 -8.950 -8.950 2.641039 3.217342 3.319 0 0.000
2501.00 1186.13 90.020477 0.0138889591828258 0.016870 218.331052 -1160780.819845 28.066820 114.227810 -23.168035 1282.173390 -8.917 -8.917 2.640658 3.217087 3.329 0 0.000
2401.00 1184.94 89.666855 0.0141146669553206 0.017145 217.407180 -1156480.558487 27.960230 113.786325 -23.124637 1277.852059 -8.886 -8.886 2.640057 3.216832 3.341 0 0.000
2301.00 1183.70 89.294179 0.0143361468888951 0.017418 216.434594 -1151930.116240 27.847693 113.320345 -23.076333 1273.288932 -8.858 -8.858 2.639223 3.216576 3.354 0 0.000
2201.00 1182.41 88.903075 0.0145457397896445 0.017677 215.414997 -1147137.181041 27.729354 112.830476 -23.022090 1268.485952 -8.832 -8.832 2.638149 3.216320 3.369 0 0.000
2101.00 1181.09 88.494863 0.0147348050502430 0.017914 214.351877 -1142118.425848 27.605568 112.318190 -22.960880 1263.453198 -8.809 -8.809 2.636833 3.216065 3.386 0 0.000
2001.00 1179.73 88.071625 0.0148944929317339 0.018116 213.250690 -1136900.456489 27.476926 111.785934 -22.891816 1258.210382 -8.787 -8.787 2.635280 3.215811 3.404 0 0.000
1901.00 1178.34 87.636204 0.0150167376657775 0.018275 212.118844 -1131519.817525 27.344260 111.237150 -22.814309 1252.787544 -8.769 -8.769 2.633500 3.215559 3.425 0 0.000
1801.00 1176.94 87.192116 0.0150952597208706 0.018383 210.965457 -1126021.831504 27.208622 110.676182 -22.728206 1247.224576 -8.752 -8.752 2.631508 3.215308 3.446 0 0.000
1701.00 1175.54 86.743362 0.0151263253498076 0.018434 209.800890 -1120458.304929 27.071231 110.108064 -22.633866 1241.569427 -8.738 -8.738 2.629326 3.215061 3.469 0 0.000
1601.00 1174.15 86.294195 0.0151090776833487 0.018428 208.636122 -1114884.426255 26.933403 109.538218 -22.532159 1235.875202 -8.726 -8.726 2.626976 3.214817 3.493 0 0.000
1501.00 1172.77 85.848858 0.0150453974131243 0.018366 207.482081 -1109355.381949 26.796465 108.972116 -22.424383 1230.196675 -8.716 -8.716 2.624483 3.214576 3.518 0 0.000
1401.00 1171.43 85.411341 0.0149393977986105 0.018254 206.349024 -1103923.241404 26.661684 108.414963 -22.312124 1224.586852 -8.708 -8.708 2.621871 3.214339 3.543 0 0.000
1301.00 1170.13 84.985199 0.0147967380592002 0.018097 205.246067 -1098634.516958 26.530197 107.871440 -22.197109 1219.094113 -8.702 -8.702 2.619160 3.214105 3.569 0 0.000
1201.00 1168.87 84.573430 0.0146239329519992 0.017904 204.180874 -1093528.577592 26.402978 107.345533 -22.081066 1213.760228 -8.698 -8.698 2.616372 3.213875 3.595 0 0.000
1101.00 1167.66 84.178418 0.0144277737515254 0.017682 203.159523 -1088636.885908 26.280811 106.840452 -21.965619 1208.619282 -8.696 -8.696 2.613523 3.213649 3.621 0 0.000
1001.00 1166.50 83.801930 0.0142149020615118 0.017440 202.186494 -1083982.900087 26.164286 106.358610 -21.852221 1203.697368 -8.695 -8.695 2.610628 3.213426 3.646 0 0.000
901.00 1165.40 83.445145 0.0139915243916517 0.017185 201.264751 -1079582.443716 26.053809 105.901659 -21.742118 1199.012820 -8.696 -8.696 2.607698 3.213206 3.672 0 0.000
801.00 1164.35 83.108708 0.0137632322436159 0.016923 200.395881 -1075444.369173 25.949617 105.470550 -21.636333 1194.576810 -8.699 -8.699 2.604744 3.212988 3.697 0 0.000
701.00 1163.36 82.792791 0.0135348926851611 0.016660 199.580267 -1071571.387784 25.851795 105.065616 -21.535664 1190.394135 -8.703 -8.703 2.601774 3.212773 3.722 0 0.000
601.00 1162.42 82.497171 0.0133105869067016 0.016403 198.817269 -1067960.984967 25.760300 104.686663 -21.440692 1186.464106 -8.708 -8.708 2.598793 3.212560 3.746 0 0.000
501.00 1161.53 82.221299 0.0130935870429976 0.016153 198.105416 -1064606.367729 25.674984 104.333063 -21.351795 1182.781493 -8.715 -8.715 2.595808 3.212349 3.770 0 0.000
401.00 1160.70 81.964370 0.0128863693783379 0.015915 197.442593 -1061497.405315 25.595614 104.003846 -21.269167 1179.337459 -8.723 -8.723 2.592821 3.212139 3.794 0 0.000
301.00 1159.91 81.725401 0.0126906627297353 0.015691 196.826219 -1058621.527674 25.521895 103.697790 -21.192843 1176.120476 -8.731 -8.731 2.589836 3.211930 3.816 0 0.000
201.00 1159.16 81.503285 0.0125075276372754 0.015482 196.253408 -1055964.548728 25.453490 103.413505 -21.122721 1173.117171 -8.741 -8.741 2.586855 3.211722 3.839 0 0.000
101.00 1158.45 81.296849 0.0123374572971201 0.015288 195.721111 -1053511.386545 25.390041 103.149506 -21.058597 1170.313080 -8.751 -8.751 2.583879 3.211514 3.861 0 0.000
1.00 1157.78 81.104901 0.0121804888454233 0.015111 195.226234 -1051246.662214 25.331179 102.904272 -21.000288 1167.692583 -8.763 -8.763 2.580894 3.211308 3.882 0 0.000

Title: Depleted MORB Mantle of Workmann & Hart 2005

Liquid Composition:
Pressure Temperature mass SiO2 TiO2 Al2O3 Fe2O3 Cr2O3 FeO MnO MgO NiO CaO Na2O 
5601.00 1216.57 0.000000 ---
5501.00 1215.90 0.170252 55.5311 0.700733 18.9041 0.272278 0.0973116 3.79994 0.00502008 7.7957 0.00261667 8.85284 4.0384
5401.00 1215.20 0.354238 55.5255 0.701616 18.8886 0.279803 0.0946879 3.807 0.00491366 7.80891 0.00255934 8.98352 3.90286
5301.00 1214.46 0.551971 55.5209 0.702172 18.8729 0.287447 0.0921721 3.8132 0.00480837 7.8208 0.0025026 9.11343 3.76962
5201.00 1213.69 0.763460 55.5174 0.702414 18.8571 0.295207 0.0897659 3.8185 0.00470427 7.83132 0.00244649 9.24243 3.63874
5101.00 1212.89 0.988721 55.5151 0.702356 18.841 0.303082 0.0874706 3.82287 0.00460144 7.84045 0.00239104 9.37036 3.51032
5001.00 1212.05 1.218367 55.5142 0.702005 18.8246 0.311065 0.0852847 3.82629 0.00449992 7.84819 0.00233629 9.49711 3.3844
4901.00 1211.18 1.226437 55.5135 0.701252 18.8084 0.319128 0.0831404 3.82919 0.00439941 7.85501 0.00228211 9.62395 3.25977
4801.00 1210.30 1.234016 55.5128 0.700106 18.7924 0.327268 0.0810364 3.83159 0.00429995 7.86093 0.0022285 9.75093 3.13637
4701.00 1209.38 1.241077 55.5122 0.698574 18.7766 0.335482 0.0789712 3.83352 0.00420155 7.86601 0.00217549 9.87809 3.01414
4601.00 1208.45 1.247595 55.5116 0.696668 18.761 0.343769 0.0769434 3.83503 0.00410422 7.87028 0.00212309 10.0055 2.89301
4501.00 1207.49 1.253544 55.5109 0.694397 18.7454 0.352126 0.0749513 3.83616 0.004008 7.87379 0.00207131 10.1333 2.77289
4401.00 1206.51 1.258897 55.5101 0.691777 18.73 0.360553 0.0729934 3.83694 0.00391291 7.87658 0.00202017 10.2615 2.65369
4301.00 1205.51 1.263630 55.509 0.688824 18.7146 0.36905 0.071068 3.83744 0.00381896 7.87871 0.00196969 10.3902 2.53534
4201.00 1204.50 1.267719 55.5076 0.685554 18.6993 0.377618 0.0691737 3.8377 0.00372618 7.88023 0.00191987 10.5195 2.41773
4101.00 1203.47 1.271145 55.5057 0.681989 18.6839 0.386259 0.0673091 3.83778 0.0036346 7.88119 0.00187073 10.6496 2.30077
4001.00 1202.42 1.273896 55.5032 0.678149 18.6685 0.394977 0.065473 3.83773 0.00354424 7.88165 0.00182229 10.7806 2.18436
3901.00 1201.37 1.275971 55.5001 0.674058 18.6529 0.403775 0.0636647 3.83762 0.00345513 7.88165 0.00177457 10.9126 2.06843
3801.00 1200.30 1.277382 55.4962 0.669741 18.6372 0.41266 0.0618841 3.83749 0.0033673 7.88124 0.00172759 11.0456 1.9529
3701.00 1199.22 1.278162 55.4915 0.665223 18.6212 0.421637 0.0601315 3.83739 0.0032808 7.88046 0.00168136 11.1798 1.83773
3601.00 1198.13 1.278371 55.4858 0.660529 18.6049 0.430714 0.058408 3.83735 0.00319567 7.87933 0.00163592 11.3152 1.72288
3501.00 1197.03 1.278102 55.4793 0.655681 18.5883 0.439898 0.0567158 3.83739 0.00311195 7.87785 0.00159128 11.4518 1.60837
3401.00 1195.93 1.277490 55.472 0.650698 18.5711 0.449193 0.0550581 3.83751 0.0030297 7.87601 0.00154747 11.5896 1.49427
3301.00 1194.82 1.276717 55.464 0.645593 18.5535 0.4586 0.0534391 3.83767 0.00294899 7.87377 0.00150453 11.7283 1.3807
3201.00 1193.71 1.276020 55.4557 0.640366 18.5352 0.468118 0.0518645 3.8378 0.00286988 7.87105 0.00146249 11.8676 1.26787
3101.00 1192.58 1.275690 55.4476 0.635007 18.5163 0.477734 0.0503411 3.83778 0.00279246 7.86773 0.00142139 12.0073 1.15605
3001.00 1191.44 1.276072 55.4401 0.629487 18.4965 0.487428 0.0488767 3.83744 0.0027168 7.86367 0.00138126 12.1468 1.04562
2901.00 1190.38 1.240957 55.43 0.626705 18.4689 0.49899 0.0475762 3.83938 0.0026463 7.86158 0.00134392 12.2876 0.935368
2801.00 1189.39 1.204518 55.4199 0.627101 18.4315 0.512782 0.0464983 3.84309 0.00258197 7.86111 0.00130987 12.4268 0.827335
2701.00 1188.35 1.219360 55.4185 0.626715 18.3931 0.526376 0.0455624 3.84409 0.00252007 7.85778 0.00127707 12.5584 0.725669
2601.00 1187.27 1.234724 55.427 0.625459 18.3534 0.539685 0.0447736 3.84214 0.00246075 7.8515 0.00124559 12.6815 0.630823
2501.00 1186.13 1.250291 55.4463 0.62325 18.3123 0.55262 0.0441365 3.83705 0.00240419 7.84219 0.0012155 12.7954 0.54321
2401.00 1184.94 1.265618 55.4774 0.62002 18.2694 0.565093 0.0436546 3.82868 0.00235054 7.82984 0.00118691 12.8991 0.463176
2301.00 1183.70 1.280134 55.5214 0.615719 18.2245 0.577022 0.0433301 3.81697 0.0023 7.81449 0.00115989 12.9922 0.390966
2201.00 1182.41 1.293161 55.5786 0.610322 18.177 0.588331 0.0431625 3.80193 0.00225273 7.79625 0.00113453 13.0743 0.326692
2101.00 1181.09 1.303955 55.6496 0.603837 18.1267 0.59896 0.0431486 3.78368 0.00220889 7.7753 0.00111092 13.1452 0.270304
2001.00 1179.73 1.311782 55.7342 0.596306 18.0729 0.608865 0.0432815 3.76245 0.00216863 7.75192 0.00108914 13.2052 0.221574
1901.00 1178.34 1.316010 55.8323 0.587804 18.0153 0.618019 0.0435509 3.73858 0.00213206 7.72643 0.00106923 13.2547 0.180098
1801.00 1176.94 1.316188 55.9431 0.578437 17.9535 0.626412 0.0439428 3.71247 0.00209924 7.69924 0.00105125 13.2945 0.145316
1701.00 1175.54 1.312108 56.0657 0.568334 17.8869 0.634052 0.0444405 3.68458 0.00207023 7.67076 0.00103521 13.3255 0.116554
1601.00 1174.15 1.303826 56.1992 0.557637 17.8154 0.640956 0.0450252 3.65541 0.00204501 7.64144 0.00102112 13.3488 0.0930712
1501.00 1172.77 1.291630 56.3422 0.546495 17.7387 0.647154 0.0456771 3.62541 0.00202359 7.61171 0.00100898 13.3655 0.0741113
1401.00 1171.43 1.275994 56.4938 0.535055 17.6564 0.652677 0.0463766 3.59504 0.0020059 7.58196 0.000998755 13.3768 0.0589451
1301.00 1170.13 1.257504 56.6526 0.523454 17.5686 0.657563 0.0471047 3.56468 0.00199191 7.55257 0.000990426 13.3835 0.046903
1201.00 1168.87 1.236796 56.8177 0.511821 17.4751 0.661851 0.0478442 3.53467 0.00198154 7.52384 0.000983958 13.3867 0.0373939
1101.00 1167.66 1.214507 56.9882 0.500268 17.376 0.665579 0.0485799 3.50528 0.00197472 7.49603 0.000979312 13.3872 0.029912
1001.00 1166.50 1.191236 57.1633 0.488893 17.2713 0.668788 0.0492987 3.47671 0.00197139 7.46936 0.000976451 13.3854 0.0240364
901.00 1165.40 1.167525 57.3422 0.477776 17.161 0.67152 0.0499896 3.44913 0.00197147 7.444 0.000975332 13.3819 0.0194236
801.00 1164.35 1.143844 57.5245 0.466982 17.0454 0.673816 0.050644 3.42266 0.00197488 7.42009 0.000975914 13.3772 0.0157978
701.00 1163.36 1.120592 57.7095 0.456561 16.9245 0.675718 0.0512552 3.39737 0.00198156 7.39773 0.000978154 13.3714 0.0129408
601.00 1162.42 1.098086 57.8969 0.446544 16.7986 0.677266 0.0518184 3.3733 0.00199143 7.37697 0.000982011 13.3649 0.0106814
501.00 1161.53 1.076572 58.0863 0.436951 16.6679 0.6785 0.0523304 3.35048 0.00200442 7.35788 0.000987442 13.3578 0.00888646
401.00 1160.70 1.056223 58.2774 0.427788 16.5325 0.679455 0.0527894 3.32891 0.00202046 7.34048 0.000994408 13.3501 0.00745267
301.00 1159.91 1.037150 58.4701 0.419052 16.3928 0.680168 0.0531948 3.30858 0.00203948 7.32477 0.00100287 13.342 0.00630045
201.00 1159.16 1.019405 58.664 0.41073 16.2489 0.680668 0.0535469 3.28946 0.00206144 7.31076 0.0010128 13.3335 0.00536841
101.00 1158.45 1.002996 58.8591 0.402805 16.1009 0.680982 0.0538471 3.27152 0.0020863 7.29845 0.00102418 13.3246 0.00460928
1.00 1157.78 0.987897 59.0553 0.395255 15.9492 0.681137 0.0540968 3.25474 0.00211401 7.28782 0.00103697 13.3153 0.00398656
Title: Depleted MORB Mantle of Workmann & Hart 2005

liquid_0 thermodynamic data and composition:
Pressure Temperature mass S H V Cp viscosity SiO2 TiO2 Al2O3 Fe2O3 Cr2O3 FeO MnO MgO NiO CaO Na2O
5501.00 1215.90 0.170252 0.460040 -2171.590245 0.064535 0.259337 3.111 55.5311 0.700733 18.9041 0.272278 0.0973116 3.79994 0.00502008 7.7957 0.00261667 8.85284 4.0384
5401.00 1215.20 0.354238 0.956243 -4520.643481 0.134261 0.539635 3.116 55.5255 0.701616 18.8886 0.279803 0.0946879 3.807 0.00491366 7.80891 0.00255934 8.98352 3.90286
5301.00 1214.46 0.551971 1.488524 -7047.621275 0.209183 0.840914 3.122 55.5209 0.702172 18.8729 0.287447 0.0921721 3.8132 0.00480837 7.8208 0.0025026 9.11343 3.76962
5201.00 1213.69 0.763460 2.056790 -9752.948684 0.289307 1.163188 3.128 55.5174 0.702414 18.8571 0.295207 0.0897659 3.8185 0.00470427 7.83132 0.00244649 9.24243 3.63874
5101.00 1212.89 0.988721 2.660959 -12637.115618 0.374641 1.506477 3.134 55.5151 0.702356 18.841 0.303082 0.0874706 3.82287 0.00460144 7.84045 0.00239104 9.37036 3.51032
5001.00 1212.05 1.218367 3.275679 -15580.414664 0.461632 1.856476 3.141 55.5142 0.702005 18.8246 0.311065 0.0852847 3.82629 0.00449992 7.84819 0.00233629 9.49711 3.3844
4901.00 1211.18 1.226437 3.293993 -15691.860954 0.464667 1.868866 3.148 55.5135 0.701252 18.8084 0.319128 0.0831404 3.82919 0.00439941 7.85501 0.00228211 9.62395 3.25977
4801.00 1210.30 1.234016 3.310909 -15797.163988 0.467517 1.880501 3.155 55.5128 0.700106 18.7924 0.327268 0.0810364 3.83159 0.00429995 7.86093 0.0022285 9.75093 3.13637
4701.00 1209.38 1.241077 3.326363 -15895.992261 0.470174 1.891343 3.162 55.5122 0.698574 18.7766 0.335482 0.0789712 3.83352 0.00420155 7.86601 0.00217549 9.87809 3.01414
4601.00 1208.45 1.247595 3.340292 -15988.001104 0.472628 1.901354 3.170 55.5116 0.696668 18.761 0.343769 0.0769434 3.83503 0.00410422 7.87028 0.00212309 10.0055 2.89301
4501.00 1207.49 1.253544 3.352627 -16072.837128 0.474867 1.910493 3.177 55.5109 0.694397 18.7454 0.352126 0.0749513 3.83616 0.004008 7.87379 0.00207131 10.1333 2.77289
4401.00 1206.51 1.258897 3.363302 -16150.145663 0.476883 1.918721 3.185 55.5101 0.691777 18.73 0.360553 0.0729934 3.83694 0.00391291 7.87658 0.00202017 10.2615 2.65369
4301.00 1205.51 1.263630 3.372255 -16219.582299 0.478664 1.925999 3.192 55.509 0.688824 18.7146 0.36905 0.071068 3.83744 0.00381896 7.87871 0.00196969 10.3902 2.53534
4201.00 1204.50 1.267719 3.379428 -16280.829956 0.480202 1.932294 3.200 55.5076 0.685554 18.6993 0.377618 0.0691737 3.8377 0.00372618 7.88023 0.00191987 10.5195 2.41773
4101.00 1203.47 1.271145 3.384776 -16333.623350 0.481490 1.937575 3.208 55.5057 0.681989 18.6839 0.386259 0.0673091 3.83778 0.0036346 7.88119 0.00187073 10.6496 2.30077
