Title: Depleted MORB Mantle of Workmann & Hart 2005

Liquid Composition:
Pressure Temperature mass SiO2 TiO2 Al2O3 Fe2O3 Cr2O3 FeO MnO MgO NiO CaO Na2O 
5601.00 1216.57 0.000000 ---
5501.00 1215.90 0.170252 55.5311 0.700733 18.9041 0.272278 0.0973116 3.79994 0.00502008 7.7957 0.00261667 8.85284 4.0384
5401.00 1215.20 0.354238 55.5255 0.701616 18.8886 0.279803 0.0946879 3.807 0.00491366 7.80891 0.00255934 8.98352 3.90286
5301.00 1214.46 0.551971 55.5209 0.702172 18.8729 0.287447 0.0921721 3.8132 0.00480837 7.8208 0.0025026 9.11343 3.76962
5201.00 1213.69 0.763460 55.5174 0.702414 18.8571 0.295207 0.0897659 3.8185 0.00470427 7.83132 0.00244649 9.24243 3.63874
5101.00 1212.89 0.988721 55.5151 0.702356 18.841 0.303082 0.0874706 3.82287 0.00460144 7.84045 0.00239104 9.37036 3.51032
5001.00 1212.05 1.218367 55.5142 0.702005 18.8246 0.311065 0.0852847 3.82629 0.00449992 7.84819 0.00233629 9.49711 3.3844
4901.00 1211.18 1.226437 55.5135 0.701252 18.8084 0.319128 0.0831404 3.82919 0.00439941 7.85501 0.00228211 9.62395 3.25977
4801.00 1210.30 1.234016 55.5128 0.700106 18.7924 0.327268 0.0810364 3.83159 0.00429995 7.86093 0.0022285 9.75093 3.13637
4701.00 1209.38 1.241077 55.5122 0.698574 18.7766 0.335482 0.0789712 3.83352 0.00420155 7.86601 0.00217549 9.87809 3.01414
4601.00 1208.45 1.247595 55.5116 0.696668 18.761 0.343769 0.0769434 3.83503 0.00410422 7.87028 0.00212309 10.0055 2.89301
4501.00 1207.49 1.253544 55.5109 0.694397 18.7454 0.352126 0.0749513 3.83616 0.004008 7.87379 0.00207131 10.1333 2.77289
4401.00 1206.51 1.258897 55.5101 0.691777 18.73 0.360553 0.0729934 3.83694 0.00391291 7.87658 0.00202017 10.2615 2.65369
4301.00 1205.51 1.263630 55.509 0.688824 18.7146 0.36905 0.071068 3.83744 0.00381896 7.87871 0.00196969 10.3902 2.53534
4201.00 1204.50 1.267719 55.5076 0.685554 18.6993 0.377618 0.0691737 3.8377 0.00372618 7.88023 0.00191987 10.5195 2.41773
4101.00 1203.47 1.271145 55.5057 0.681989 18.6839 0.386259 0.0673091 3.83778 0.0036346 7.88119 0.00187073 10.6496 2.30077
4001.00 1202.42 1.273896 55.5032 0.678149 18.6685 0.394977 0.065473 3.83773 0.00354424 7.88165 0.00182229 10.7806 2.18436
3901.00 1201.37 1.275971 55.5001 0.674058 18.6529 0.403775 0.0636647 3.83762 0.00345513 7.88165 0.00177457 10.9126 2.06843
3801.00 1200.30 1.277382 55.4962 0.669741 18.6372 0.41266 0.0618841 3.83749 0.0033673 7.88124 0.00172759 11.0456 1.9529
3701.00 1199.22 1.278162 55.4915 0.665223 18.6212 0.421637 0.0601315 3.83739 0.0032808 7.88046 0.00168136 11.1798 1.83773
3601.00 1198.13 1.278371 55.4858 0.660529 18.6049 0.430714 0.058408 3.83735 0.00319567 7.87933 0.00163592 11.3152 1.72288
3501.00 1197.03 1.278102 55.4793 0.655681 18.5883 0.439898 0.0567158 3.83739 0.00311195 7.87785 0.00159128 11.4518 1.60837
3401.00 1195.93 1.277490 55.472 0.650698 18.5711 0.449193 0.0550581 3.83751 0.0030297 7.87601 0.00154747 11.5896 1.49427
3301.00 1194.82 1.276717 55.464 0.645593 18.5535 0.4586 0.0534391 3.83767 0.00294899 7.87377 0.00150453 11.7283 1.3807
3201.00 1193.71 1.276020 55.4557 0.640366 18.5352 0.468118 0.0518645 3.8378 0.00286988 7.87105 0.00146249 11.8676 1.26787
3101.00 1192.58 1.275690 55.4476 0.635007 18.5163 0.477734 0.0503411 3.83778 0.00279246 7.86773 0.00142139 12.0073 1.15605
3001.00 1191.44 1.276072 55.4401 0.629487 18.4965 0.487428 0.0488767 3.83744 0.0027168 7.86367 0.00138126 12.1468 1.04562
2901.00 1190.38 1.240957 55.43 0.626705 18.4689 0.49899 0.0475762 3.83938 0.0026463 7.86158 0.00134392 12.2876 0.935368
2801.00 1189.39 1.204518 55.4199 0.627101 18.4315 0.512782 0.0464983 3.84309 0.00258197 7.86111 0.00130987 12.4268 0.827335
2701.00 1188.35 1.219360 55.4185 0.626715 18.3931 0.526376 0.0455624 3.84409 0.00252007 7.85778 0.00127707 12.5584 0.725669
2601.00 1187.27 1.234724 55.427 0.625459 18.3534 0.539685 0.0447736 3.84214 0.00246075 7.8515 0.00124559 12.6815 0.630823
2501.00 1186.13 1.250291 55.4463 0.62325 18.3123 0.55262 0.0441365 3.83705 0.00240419 7.84219 0.0012155 12.7954 0.54321
2401.00 1184.94 1.265618 55.4774 0.62002 18.2694 0.565093 0.0436546 3.82868 0.00235054 7.82984 0.00118691 12.8991 0.463176
2301.00 1183.70 1.280134 55.5214 0.615719 18.2245 0.577022 0.0433301 3.81697 0.0023 7.81449 0.00115989 12.9922 0.390966
2201.00 1182.41 1.293161 55.5786 0.610322 18.177 0.588331 0.0431625 3.80193 0.00225273 7.79625 0.00113453 13.0743 0.326692
2101.00 1181.09 1.303955 55.6496 0.603837 18.1267 0.59896 0.0431486 3.78368 0.00220889 7.7753 0.00111092 13.1452 0.270304
2001.00 1179.73 1.311782 55.7342 0.596306 18.0729 0.608865 0.0432815 3.76245 0.00216863 7.75192 0.00108914 13.2052 0.221574
1901.00 1178.34 1.316010 55.8323 0.587804 18.0153 0.618019 0.0435509 3.73858 0.00213206 7.72643 0.00106923 13.2547 0.180098
1801.00 1176.94 1.316188 55.9431 0.578437 17.9535 0.626412 0.0439428 3.71247 0.00209924 7.69924 0.00105125 13.2945 0.145316
1701.00 1175.54 1.312108 56.0657 0.568334 17.8869 0.634052 0.0444405 3.68458 0.00207023 7.67076 0.00103521 13.3255 0.116554
1601.00 1174.15 1.303826 56.1992 0.557637 17.8154 0.640956 0.0450252 3.65541 0.00204501 7.64144 0.00102112 13.3488 0.0930712
1501.00 1172.77 1.291630 56.3422 0.546495 17.7387 0.647154 0.0456771 3.62541 0.00202359 7.61171 0.00100898 13.3655 0.0741113
1401.00 1171.43 1.275994 56.4938 0.535055 17.6564 0.652677 0.0463766 3.59504 0.0020059 7.58196 0.000998755 13.3768 0.0589451
1301.00 1170.13 1.257504 56.6526 0.523454 17.5686 0.657563 0.0471047 3.56468 0.00199191 7.55257 0.000990426 13.3835 0.046903
1201.00 1168.87 1.236796 56.8177 0.511821 17.4751 0.661851 0.0478442 3.53467 0.00198154 7.52384 0.000983958 13.3867 0.0373939
1101.00 1167.66 1.214507 56.9882 0.500268 17.376 0.665579 0.0485799 3.50528 0.00197472 7.49603 0.000979312 13.3872 0.029912
1001.00 1166.50 1.191236 57.1633 0.488893 17.2713 0.668788 0.0492987 3.47671 0.00197139 7.46936 0.000976451 13.3854 0.0240364
901.00 1165.40 1.167525 57.3422 0.477776 17.161 0.67152 0.0499896 3.44913 0.00197147 7.444 0.000975332 13.3819 0.0194236
801.00 1164.35 1.143844 57.5245 0.466982 17.0454 0.673816 0.050644 3.42266 0.00197488 7.42009 0.000975914 13.3772 0.0157978
701.00 1163.36 1.120592 57.7095 0.456561 16.9245 0.675718 0.0512552 3.39737 0.00198156 7.39773 0.000978154 13.3714 0.0129408
601.00 1162.42 1.098086 57.8969 0.446544 16.7986 0.677266 0.0518184 3.3733 0.00199143 7.37697 0.000982011 13.3649 0.0106814
501.00 1161.53 1.076572 58.0863 0.436951 16.6679 0.6785 0.0523304 3.35048 0.00200442 7.35788 0.000987442 13.3578 0.00888646
401.00 1160.70 1.056223 58.2774 0.427788 16.5325 0.679455 0.0527894 3.32891 0.00202046 7.34048 0.000994408 13.3501 0.00745267
301.00 1159.91 1.037150 58.4701 0.419052 16.3928 0.680168 0.0531948 3.30858 0.00203948 7.32477 0.00100287 13.342 0.00630045
201.00 1159.16 1.019405 58.664 0.41073 16.2489 0.680668 0.0535469 3.28946 0.00206144 7.31076 0.0010128 13.3335 0.00536841
101.00 1158.45 1.002996 58.8591 0.402805 16.1009 0.680982 0.0538471 3.27152 0.0020863 7.29845 0.00102418 13.3246 0.00460928
1.00 1157.78 0.987897 59.0553 0.395255 15.9492 0.681137 0.0540968 3.25474 0.00211401 7.28782 0.00103697 13.3153 0.00398656