Title: Depleted MORB Mantle of Workmann & Hart 2005

Solid Composition:
Pressure Temperature mass SiO2 TiO2 Al2O3 Fe2O3 Cr2O3 FeO MnO MgO NiO CaO Na2O 
5601.00 1216.57 97.952744 44.406 0.117981 3.63774 0.190075 0.57913 8.09269 0.132581 39.3698 0.244945 3.06248 0.166615
5501.00 1215.90 97.782491 44.3866 0.116966 3.61116 0.189932 0.579969 8.10016 0.132803 39.4247 0.245367 3.0524 0.159874
5401.00 1215.20 97.598505 44.3656 0.115863 3.58239 0.189749 0.580888 8.10825 0.133044 39.4843 0.245825 3.04099 0.153054
5301.00 1214.46 97.400773 44.343 0.11467 3.55141 0.189523 0.58189 8.11694 0.133305 39.5485 0.246319 3.02819 0.146197
5201.00 1213.69 97.189283 44.3187 0.11339 3.51819 0.189249 0.582974 8.12627 0.133586 39.6175 0.24685 3.01394 0.13934
5101.00 1212.89 96.964023 44.2927 0.112022 3.48272 0.188923 0.584143 8.13623 0.133886 39.6912 0.247418 2.99816 0.13252
5001.00 1212.05 96.725091 44.265 0.110568 3.44499 0.18854 0.585398 8.14684 0.134207 39.7698 0.248024 2.98082 0.125762
4901.00 1211.18 96.475675 44.2359 0.109049 3.40543 0.188121 0.586718 8.15797 0.134543 39.8523 0.24866 2.96236 0.118922
4801.00 1210.30 96.216160 44.2055 0.107466 3.36409 0.187663 0.588103 8.16962 0.134896 39.9385 0.249325 2.94277 0.112033
4701.00 1209.38 95.946964 44.1738 0.105823 3.32101 0.187165 0.589553 8.18176 0.135263 40.0284 0.250019 2.92202 0.105129
4601.00 1208.45 95.668530 44.1408 0.104123 3.27623 0.186625 0.591065 8.1944 0.135646 40.122 0.250741 2.90012 0.0982422
4501.00 1207.49 95.381335 44.1066 0.102369 3.22981 0.186042 0.592639 8.20751 0.136043 40.219 0.251491 2.87704 0.0914058
4401.00 1206.51 95.085885 44.0712 0.100564 3.18181 0.185415 0.594274 8.22108 0.136455 40.3195 0.252266 2.8528 0.084652
4301.00 1205.51 94.782718 44.0346 0.0987123 3.13228 0.184741 0.595967 8.2351 0.13688 40.4233 0.253067 2.82739 0.0780127
4201.00 1204.50 94.472401 43.9969 0.0968178 3.0813 0.184021 0.597716 8.24954 0.137318 40.5301 0.253893 2.80081 0.0715192
4101.00 1203.47 94.155522 43.9582 0.0948846 3.02895 0.183253 0.59952 8.26439 0.137769 40.64 0.254741 2.77307 0.0652021
4001.00 1202.42 93.832692 43.9185 0.0929168 2.9753 0.182436 0.601376 8.27962 0.138232 40.7527 0.255612 2.7442 0.059091
3901.00 1201.37 93.504525 43.8779 0.0909187 2.92043 0.18157 0.603282 8.29521 0.138706 40.8681 0.256503 2.71419 0.0532141
3801.00 1200.30 93.171633 43.8364 0.0888944 2.86444 0.180654 0.605234 8.31114 0.13919 40.9859 0.257414 2.68308 0.0475978
3701.00 1199.22 92.834599 43.7942 0.0868478 2.80739 0.179688 0.607231 8.32738 0.139684 41.1061 0.258343 2.65087 0.0422664
3601.00 1198.13 92.493951 43.7512 0.0847826 2.74938 0.178672 0.60927 8.34392 0.140188 41.2285 0.259289 2.61758 0.0372413
3501.00 1197.03 92.150132 43.7075 0.0827017 2.69045 0.177604 0.611348 8.36073 0.1407 41.353 0.260251 2.58324 0.0325402
3401.00 1195.93 91.803452 43.6631 0.0806072 2.63065 0.176484 0.613466 8.37781 0.141221 41.4794 0.261228 2.54783 0.0281771
3301.00 1194.82 91.454042 43.6181 0.0785004 2.57 0.175311 0.615622 8.39516 0.14175 41.6078 0.262221 2.51135 0.0241612
3201.00 1193.71 91.101800 43.5724 0.076381 2.50845 0.174082 0.617818 8.41278 0.142288 41.7383 0.26323 2.47376 0.0204966
3101.00 1192.58 90.746330 43.526 0.0742471 2.44594 0.172795 0.620056 8.4307 0.142835 41.871 0.264256 2.435 0.0171823
3001.00 1191.44 90.386887 43.4787 0.0720951 2.38231 0.171446 0.622342 8.44897 0.143393 42.0063 0.265301 2.39496 0.0142124
2901.00 1190.38 90.058930 43.4353 0.0701036 2.32401 0.170136 0.624449 8.46573 0.143906 42.1306 0.266263 2.35751 0.0119757
2801.00 1189.39 89.764098 43.396 0.0682701 2.27149 0.168871 0.626358 8.48088 0.144371 42.2432 0.267134 2.32303 0.0103924
2701.00 1188.35 89.451446 43.354 0.0663221 2.21553 0.167483 0.628397 8.49707 0.144868 42.3634 0.268063 2.28592 0.0089229
2601.00 1187.27 89.120272 43.3091 0.0642571 2.15596 0.165965 0.630574 8.51439 0.145397 42.4917 0.269055 2.24604 0.0075735
2501.00 1186.13 88.770186 43.261 0.062075 2.09266 0.164309 0.632893 8.53289 0.145962 42.6285 0.270112 2.20328 0.00634957
2401.00 1184.94 88.401237 43.2097 0.0597791 2.02558 0.16251 0.635357 8.55261 0.146562 42.7738 0.271234 2.15759 0.00525477
2301.00 1183.70 88.014045 43.1551 0.0573771 1.95477 0.160565 0.637965 8.57356 0.147197 42.9278 0.272423 2.10898 0.00429055
2201.00 1182.41 87.609914 43.0972 0.0548812 1.88043 0.158477 0.640711 8.59572 0.147866 43.09 0.273674 2.05757 0.00345559
2101.00 1181.09 87.190908 43.0362 0.0523089 1.80286 0.156253 0.643582 8.61903 0.148566 43.2599 0.274984 2.00356 0.00274553
2001.00 1179.73 86.759842 42.9722 0.0496825 1.72257 0.153903 0.646564 8.64338 0.149294 43.4366 0.276346 1.9473 0.00215294
1901.00 1178.34 86.320195 42.9057 0.0470281 1.64017 0.151447 0.649632 8.6686 0.150044 43.6187 0.277748 1.88921 0.00166772
1801.00 1176.94 85.875928 42.8371 0.044374 1.55641 0.148904 0.652762 8.69451 0.15081 43.8048 0.279179 1.8298 0.00127773
1701.00 1175.54 85.431253 42.767 0.0417494 1.47208 0.146302 0.655923 8.72087 0.151584 43.9932 0.280627 1.76965 0.000969745
1601.00 1174.15 84.990370 42.696 0.0391818 1.38803 0.143665 0.659086 8.74744 0.15236 44.1821 0.282078 1.70935 0.000730401
1501.00 1172.77 84.557228 42.6246 0.0366962 1.30505 0.141023 0.662222 8.77398 0.153131 44.3697 0.283518 1.64947 0.000547005
1401.00 1171.43 84.135347 42.5536 0.0343135 1.22389 0.138402 0.665302 8.80026 0.153889 44.5545 0.284935 1.59055 0.000408141
1301.00 1170.13 83.727696 42.4833 0.0320497 1.14521 0.135824 0.668305 8.82606 0.154628 44.7349 0.286317 1.53306 0.000303997
1201.00 1168.87 83.336634 42.4144 0.0299164 1.06953 0.133313 0.671209 8.85119 0.155345 44.9098 0.287656 1.47741 0.000226454
1101.00 1167.66 82.963911 42.3472 0.0279205 0.997274 0.130883 0.673999 8.87551 0.156034 45.0782 0.288944 1.4239 0.000169002
1001.00 1166.50 82.610694 42.282 0.0260649 0.928754 0.128551 0.676662 8.89888 0.156693 45.2393 0.290175 1.37277 0.000126556
901.00 1165.40 82.277621 42.2193 0.0243491 0.864161 0.126325 0.679192 8.92122 0.157319 45.3925 0.291346 1.32419 9.52215e-005
801.00 1164.35 81.964863 42.159 0.0227695 0.80359 0.124213 0.681584 8.94247 0.157912 45.5377 0.292454 1.27825 7.20683e-005
701.00 1163.36 81.672200 42.1014 0.0213207 0.747047 0.122217 0.683837 8.9626 0.15847 45.6746 0.293499 1.23497 5.49164e-005
601.00 1162.42 81.399086 42.0465 0.0199955 0.694466 0.120339 0.685951 8.9816 0.158995 45.8033 0.29448 1.19434 4.21603e-005
501.00 1161.53 81.144727 41.9943 0.0187857 0.64572 0.118577 0.687932 8.99948 0.159487 45.924 0.2954 1.15628 3.26246e-005
401.00 1160.70 80.908147 41.9448 0.0176826 0.600638 0.116927 0.689785 9.01628 0.159948 46.037 0.296261 1.12071 2.5453e-005
301.00 1159.91 80.688252 41.8978 0.0166773 0.559016 0.115385 0.691516 9.03204 0.160378 46.1426 0.297065 1.08748 2.00224e-005
201.00 1159.16 80.483880 41.8532 0.0157609 0.520632 0.113945 0.693132 9.04682 0.160779 46.2414 0.297817 1.05647 1.58798e-005
101.00 1158.45 80.293852 41.811 0.0149252 0.485257 0.1126 0.694642 9.06067 0.161155 46.3337 0.298519 1.02753 1.2695e-005
1.00 1157.78 80.117004 41.771 0.0141621 0.452658 0.111343 0.696054 9.07365 0.161506 46.42 0.299176 1.0005 1.02271e-005