Title: Depleted MORB Mantle of Workmann & Hart 2005

Liquid Composition:
Pressure Temperature mass SiO2 TiO2 Al2O3 Fe2O3 Cr2O3 FeO MnO MgO NiO CaO Na2O 
44001.00 1214.32 0.000000 ---
43901.00 1214.15 0.000000 ---
43801.00 1213.98 0.000000 ---
43701.00 1213.80 0.000000 ---
43601.00 1213.63 0.000000 ---
43501.00 1213.45 0.000000 ---
43401.00 1213.28 0.000000 ---
43301.00 1213.10 0.000000 ---
43201.00 1212.93 0.000000 ---
43101.00 1212.75 0.000000 ---
43001.00 1212.58 0.000000 ---
42901.00 1212.41 0.000000 ---
42801.00 1212.23 0.000000 ---
42701.00 1212.06 0.000000 ---
42601.00 1211.88 0.000000 ---
42501.00 1211.71 0.000000 ---
42401.00 1211.53 0.000000 ---
42301.00 1211.36 0.000000 ---
42201.00 1211.18 0.000000 ---
42101.00 1211.01 0.000000 ---
42001.00 1210.84 0.000000 ---
41901.00 1210.66 0.000000 ---
41801.00 1210.49 0.000000 ---
41701.00 1210.31 0.000000 ---
41601.00 1210.14 0.000000 ---
41501.00 1209.96 0.000000 ---
41401.00 1209.79 0.000000 ---
41301.00 1209.61 0.000000 ---
41201.00 1209.44 0.000000 ---
41101.00 1209.26 0.000000 ---
41001.00 1209.09 0.000000 ---
40901.00 1208.91 0.000000 ---
40801.00 1208.74 0.000000 ---
40701.00 1208.56 0.000000 ---
40601.00 1208.39 0.000000 ---
40501.00 1208.22 0.000000 ---
40401.00 1208.04 0.000000 ---
40301.00 1207.87 0.000000 ---
40201.00 1207.69 0.000000 ---
40101.00 1207.52 0.000000 ---
40001.00 1207.34 0.000000 ---
39901.00 1207.17 0.000000 ---
39801.00 1206.99 0.000000 ---
39701.00 1206.82 0.000000 ---
39601.00 1206.64 0.000000 ---
39501.00 1206.47 0.000000 ---
39401.00 1206.29 0.000000 ---
39301.00 1206.11 0.000000 ---
39201.00 1205.94 0.000000 ---
39101.00 1205.76 0.000000 ---
39001.00 1205.59 0.000000 ---
38901.00 1205.41 0.000000 ---
38801.00 1205.24 0.000000 ---
38701.00 1205.06 0.000000 ---
38601.00 1204.89 0.000000 ---
38501.00 1204.71 0.000000 ---
38401.00 1204.54 0.000000 ---
38301.00 1204.36 0.000000 ---
38201.00 1204.19 0.000000 ---
38101.00 1204.01 0.000000 ---
38001.00 1203.83 0.000000 ---
37901.00 1203.66 0.000000 ---
37801.00 1203.48 0.000000 ---
37701.00 1203.31 0.000000 ---
37601.00 1203.13 0.000000 ---
37501.00 1202.96 0.000000 ---
37401.00 1202.78 0.000000 ---
37301.00 1202.60 0.000000 ---
37201.00 1202.43 0.000000 ---
37101.00 1202.25 0.000000 ---
37001.00 1202.08 0.000000 ---
36901.00 1201.90 0.000000 ---
36801.00 1201.72 0.000000 ---
36701.00 1201.55 0.000000 ---
36601.00 1201.37 0.000000 ---
36501.00 1201.20 0.000000 ---
36401.00 1201.02 0.000000 ---
36301.00 1200.84 0.000000 ---
36201.00 1200.67 0.000000 ---
36101.00 1200.49 0.000000 ---
36001.00 1200.31 0.000000 ---
35901.00 1200.14 0.000000 ---
35801.00 1199.96 0.000000 ---
35701.00 1199.78 0.000000 ---
35601.00 1199.61 0.000000 ---
35501.00 1199.43 0.000000 ---
35401.00 1199.25 0.000000 ---
35301.00 1199.08 0.000000 ---
35201.00 1198.90 0.000000 ---
35101.00 1198.72 0.000000 ---
35001.00 1198.55 0.000000 ---
34901.00 1198.37 0.000000 ---
34801.00 1198.19 0.000000 ---
34701.00 1198.02 0.000000 ---
34601.00 1197.84 0.000000 ---
34501.00 1197.66 0.000000 ---
34401.00 1197.48 0.000000 ---
34301.00 1197.31 0.000000 ---
34201.00 1197.13 0.000000 ---
34101.00 1196.95 0.000000 ---
34001.00 1196.77 0.000000 ---
33901.00 1196.60 0.000000 ---
33801.00 1196.42 0.000000 ---
33701.00 1196.24 0.000000 ---
33601.00 1196.06 0.000000 ---
33501.00 1195.88 0.000000 ---
33401.00 1195.71 0.000000 ---
33301.00 1195.53 0.000000 ---
33201.00 1195.35 0.000000 ---
33101.00 1195.17 0.000000 ---
33001.00 1194.99 0.000000 ---
32901.00 1194.81 0.000000 ---
32801.00 1194.64 0.000000 ---
32701.00 1194.46 0.000000 ---
32601.00 1194.28 0.000000 ---
32501.00 1194.10 0.000000 ---
32401.00 1193.92 0.000000 ---
32301.00 1193.74 0.000000 ---
32201.00 1193.56 0.000000 ---
32101.00 1193.38 0.000000 ---
32001.00 1193.20 0.000000 ---
31901.00 1193.02 0.000000 ---
31801.00 1192.85 0.000000 ---
31701.00 1192.67 0.000000 ---
31601.00 1192.49 0.000000 ---
31501.00 1192.31 0.000000 ---
31401.00 1192.13 0.000000 ---
31301.00 1191.95 0.000000 ---
31201.00 1191.77 0.000000 ---
31101.00 1191.59 0.000000 ---
31001.00 1191.41 0.000000 ---
30901.00 1191.23 0.000000 ---
30801.00 1191.04 0.000000 ---
30701.00 1190.86 0.000000 ---
30601.00 1190.68 0.000000 ---
30501.00 1190.50 0.000000 ---
30401.00 1190.32 0.000000 ---
30301.00 1190.14 0.000000 ---
30201.00 1189.96 0.000000 ---
30101.00 1189.78 0.000000 ---
30001.00 1189.60 0.000000 ---
29901.00 1189.41 0.000000 ---
29801.00 1189.23 0.000000 ---
29701.00 1189.05 0.000000 ---
29601.00 1188.87 0.000000 ---
29501.00 1188.69 0.000000 ---
29401.00 1188.50 0.000000 ---
29301.00 1188.32 0.000000 ---
29201.00 1188.14 0.000000 ---
29101.00 1187.96 0.000000 ---
29001.00 1187.77 0.000000 ---
28901.00 1187.59 0.000000 ---
28801.00 1187.41 0.000000 ---
28701.00 1187.22 0.000000 ---
28601.00 1187.04 0.000000 ---
28501.00 1186.86 0.000000 ---
28401.00 1186.67 0.000000 ---
28301.00 1186.49 0.000000 ---
28201.00 1186.30 0.000000 ---
28101.00 1186.12 0.000000 ---
28001.00 1185.93 0.000000 ---
27901.00 1185.75 0.000000 ---
27801.00 1185.56 0.000000 ---
27701.00 1185.38 0.000000 ---
27601.00 1185.19 0.000000 ---
27501.00 1185.01 0.000000 ---
27401.00 1184.82 0.000000 ---
27301.00 1184.64 0.000000 ---
27201.00 1184.45 0.000000 ---
27101.00 1184.26 0.000000 ---
27001.00 1184.08 0.000000 ---
26901.00 1183.89 0.000000 ---
26801.00 1183.70 0.000000 ---
26701.00 1183.51 0.000000 ---
26601.00 1183.33 0.000000 ---
26501.00 1183.14 0.000000 ---
26401.00 1182.95 0.000000 ---
26301.00 1182.76 0.000000 ---
26201.00 1182.57 0.000000 ---
26101.00 1182.38 0.000000 ---
26001.00 1182.20 0.000000 ---
25901.00 1182.01 0.000000 ---
25801.00 1181.82 0.000000 ---
25701.00 1181.63 0.000000 ---
25601.00 1181.44 0.000000 ---
25501.00 1181.24 0.000000 ---
25401.00 1181.05 0.000000 ---
25301.00 1180.86 0.000000 ---
25201.00 1180.67 0.000000 ---
25101.00 1180.48 0.000000 ---
25001.00 1180.29 0.000000 ---
24901.00 1180.09 0.000000 ---
24801.00 1179.90 0.000000 ---
24701.00 1179.71 0.000000 ---
24601.00 1179.51 0.000000 ---
24501.00 1179.32 0.000000 ---
24401.00 1179.12 0.000000 ---
24301.00 1178.93 0.000000 ---
24201.00 1178.73 0.000000 ---
24101.00 1178.54 0.000000 ---
24001.00 1178.34 0.000000 ---
23901.00 1178.15 0.000000 ---
23801.00 1177.95 0.000000 ---
23701.00 1177.75 0.000000 ---
23601.00 1177.55 0.000000 ---
23501.00 1177.36 0.000000 ---
23401.00 1177.16 0.000000 ---
23301.00 1176.96 0.000000 ---
23201.00 1176.76 0.000000 ---
23101.00 1176.56 0.000000 ---
23001.00 1176.36 0.000000 ---
22901.00 1176.16 0.000000 ---
22801.00 1175.95 0.000000 ---
22701.00 1175.75 0.000000 ---
22601.00 1175.55 0.000000 ---
22501.00 1175.35 0.000000 ---
22401.00 1175.14 0.000000 ---
22301.00 1174.94 0.000000 ---
22201.00 1174.73 0.000000 ---
22101.00 1174.53 0.000000 ---
22001.00 1174.32 0.000000 ---
21901.00 1174.11 0.000000 ---
21801.00 1173.90 0.000000 ---
21701.00 1173.70 0.000000 ---
21601.00 1173.49 0.000000 ---
21501.00 1173.28 0.000000 ---
21401.00 1173.07 0.000000 ---
21301.00 1172.85 0.000000 ---
21201.00 1172.64 0.000000 ---
21101.00 1172.43 0.000000 ---
21001.00 1172.22 0.000000 ---
20901.00 1172.00 0.000000 ---
20801.00 1171.79 0.000000 ---
20701.00 1171.57 0.000000 ---
20601.00 1171.35 0.000000 ---
20501.00 1171.13 0.000000 ---
20401.00 1170.92 0.000000 ---
20301.00 1170.70 0.000000 ---
20201.00 1170.47 0.000000 ---
20101.00 1170.25 0.000000 ---
20001.00 1170.03 0.000000 ---
19901.00 1169.80 0.000000 ---
19801.00 1169.58 0.000000 ---
19701.00 1169.35 0.000000 ---
19601.00 1169.12 0.000000 ---
19501.00 1168.90 0.000000 ---
19401.00 1168.67 0.000000 ---
19301.00 1168.43 0.000000 ---
19201.00 1168.20 0.000000 ---
19101.00 1167.97 0.000000 ---
19001.00 1167.73 0.000000 ---
18901.00 1167.49 0.000000 ---
18801.00 1167.25 0.000000 ---
18701.00 1167.01 0.000000 ---
18601.00 1166.77 0.000000 ---
18501.00 1166.53 0.000000 ---
18401.00 1166.28 0.000000 ---
18301.00 1166.03 0.000000 ---
18201.00 1165.78 0.000000 ---
18101.00 1165.53 0.000000 ---
18001.00 1165.27 0.000000 ---
17901.00 1165.02 0.000000 ---
17801.00 1164.76 0.000000 ---
17701.00 1164.50 0.000000 ---
17601.00 1164.23 0.000000 ---
17501.00 1163.97 0.000000 ---
17401.00 1163.70 0.000000 ---
17301.00 1163.43 0.000000 ---
17201.00 1163.15 0.000000 ---
17101.00 1162.87 0.000000 ---
17001.00 1162.59 0.000000 ---
16901.00 1162.31 0.000000 ---
16801.00 1162.03 0.000000 ---
16701.00 1161.87 0.000000 ---
16601.00 1161.71 0.000000 ---
16501.00 1161.54 0.000000 ---
16401.00 1161.38 0.000000 ---
16301.00 1161.22 0.000000 ---
16201.00 1161.06 0.000000 ---
16101.00 1160.90 0.000000 ---
16001.00 1160.74 0.000000 ---
15901.00 1160.57 0.000000 ---
15801.00 1160.41 0.000000 ---
15701.00 1160.25 0.000000 ---
15601.00 1160.09 0.000000 ---
15501.00 1159.93 0.000000 ---
15401.00 1159.76 0.000000 ---
15301.00 1159.60 0.000000 ---
15201.00 1159.44 0.000000 ---
15101.00 1159.28 0.000000 ---
15001.00 1159.12 0.000000 ---
14901.00 1158.96 0.000000 ---
14801.00 1158.79 0.000000 ---
14701.00 1158.63 0.000000 ---
14601.00 1158.47 0.000000 ---
14501.00 1158.31 0.000000 ---
14401.00 1158.15 0.000000 ---
14301.00 1157.99 0.000000 ---
14201.00 1157.82 0.000000 ---
14101.00 1157.66 0.000000 ---
14001.00 1157.50 0.000000 ---
13901.00 1157.34 0.000000 ---
13801.00 1157.18 0.000000 ---
13701.00 1157.02 0.000000 ---
13601.00 1156.85 0.000000 ---
13501.00 1156.69 0.000000 ---
13401.00 1156.53 0.000000 ---
13301.00 1156.37 0.000000 ---
13201.00 1156.21 0.000000 ---
13101.00 1156.05 0.000000 ---
13001.00 1155.89 0.000000 ---
12901.00 1155.72 0.000000 ---
12801.00 1155.56 0.000000 ---
12701.00 1155.40 0.000000 ---
12601.00 1155.24 0.000000 ---
12501.00 1155.08 0.000000 ---
12401.00 1154.92 0.000000 ---
12301.00 1154.75 0.000000 ---
12201.00 1154.59 0.000000 ---
12101.00 1154.43 0.000000 ---
12001.00 1154.27 0.000000 ---
11901.00 1154.11 0.000000 ---
11801.00 1153.95 0.000000 ---
11701.00 1153.79 0.000000 ---
11601.00 1153.62 0.000000 ---
11501.00 1153.46 0.000000 ---
11401.00 1153.30 0.000000 ---
11301.00 1153.14 0.000000 ---
11201.00 1152.98 0.000000 ---
11101.00 1152.82 0.000000 ---
11001.00 1152.66 0.000000 ---
10901.00 1152.49 0.000000 ---
10801.00 1152.33 0.000000 ---
10701.00 1152.17 0.000000 ---
10601.00 1152.01 0.000000 ---
10501.00 1151.85 0.000000 ---
10401.00 1151.69 0.000000 ---
10301.00 1151.53 0.000000 ---
10201.00 1151.36 0.000000 ---
10101.00 1151.20 0.000000 ---
10001.00 1151.04 0.000000 ---
9901.00 1150.88 0.000000 ---
9801.00 1150.72 0.000000 ---
9701.00 1150.56 0.000000 ---
9601.00 1150.40 0.000000 ---
9501.00 1150.23 0.000000 ---
9401.00 1150.07 0.000000 ---
9301.00 1149.91 0.000000 ---
9201.00 1149.68 0.000000 ---
9101.00 1149.46 0.000000 ---
9001.00 1149.23 0.000000 ---
8901.00 1149.01 0.000000 ---
8801.00 1148.79 0.000000 ---
8701.00 1148.56 0.000000 ---
8601.00 1148.34 0.000000 ---
8501.00 1148.12 0.000000 ---
8401.00 1147.90 0.000000 ---
8301.00 1147.68 0.000000 ---
8201.00 1147.46 0.000000 ---
8101.00 1147.24 0.000000 ---
8001.00 1147.03 0.000000 ---
7901.00 1146.81 0.000000 ---
7801.00 1146.59 0.000000 ---
7701.00 1146.37 0.000000 ---
7601.00 1146.15 0.000000 ---
7501.00 1145.94 0.000000 ---
7401.00 1145.72 0.000000 ---
7301.00 1145.50 0.000000 ---
7201.00 1145.29 0.000000 ---
7101.00 1145.07 0.000000 ---
7001.00 1144.85 0.000000 ---
6901.00 1144.63 0.000000 ---
6801.00 1144.41 0.000000 ---
6701.00 1144.20 0.000000 ---
6601.00 1143.98 0.000000 ---
6501.00 1143.76 0.000000 ---
6401.00 1143.54 0.000000 ---
6301.00 1143.32 0.000000 ---
6201.00 1143.10 0.000000 ---
6101.00 1142.87 0.000000 ---
6001.00 1142.65 0.000000 ---
5901.00 1142.43 0.000000 ---
5801.00 1142.20 0.000000 ---
5701.00 1141.98 0.000000 ---
5601.00 1141.75 0.000000 ---
5501.00 1141.53 0.000000 ---
5401.00 1141.30 0.000000 ---
5301.00 1141.07 0.000000 ---
5201.00 1140.84 0.000000 ---
5101.00 1140.61 0.000000 ---
5001.00 1140.37 0.000000 ---
4901.00 1140.14 0.000000 ---
4801.00 1139.90 0.000000 ---
4701.00 1139.67 0.000000 ---
4601.00 1139.43 0.000000 ---
4501.00 1139.20 0.000000 ---
4401.00 1138.96 0.000000 ---
4301.00 1138.72 0.000000 ---
4201.00 1138.48 0.000000 ---
4101.00 1138.25 0.000000 ---
4001.00 1138.01 0.000000 ---
3901.00 1137.77 0.000000 ---
3801.00 1137.54 0.000000 ---
3701.00 1137.30 0.000000 ---
3601.00 1137.07 0.000000 ---
3501.00 1136.84 0.000000 ---
3401.00 1136.61 0.000000 ---
3301.00 1136.38 0.000000 ---
3201.00 1136.16 0.000000 ---
3101.00 1135.93 0.000000 ---
3001.00 1135.71 0.000000 ---
2901.00 1135.49 0.000000 ---
2801.00 1135.27 0.000000 ---
2701.00 1135.06 0.000000 ---
2601.00 1134.85 0.000000 ---
2501.00 1134.64 0.000000 ---
2401.00 1134.43 0.000000 ---
2301.00 1134.23 0.000000 ---
2201.00 1134.02 0.000000 ---
2101.00 1133.82 0.000000 ---
2001.00 1133.63 0.000000 ---
1901.00 1133.43 0.000000 ---
1801.00 1133.24 0.000000 ---
1701.00 1133.05 0.000000 ---
1601.00 1132.86 0.000000 ---
1501.00 1132.67 0.000000 ---
1401.00 1132.48 0.000000 ---
1301.00 1132.30 0.000000 ---
1201.00 1132.11 0.000000 ---
1101.00 1131.93 0.000000 ---
1001.00 1131.75 0.000000 ---
901.00 1131.57 0.000000 ---
801.00 1131.39 0.000000 ---
701.00 1130.96 0.112988 58.5602 1.5511 17.2429 0.744882 0.0850249 2.95072 0.00260426 6.49576 0.00125576 10.711 1.65455
601.00 1129.08 0.877813 58.7752 1.46067 17.2303 0.732806 0.0841638 2.90763 0.00252304 6.45052 0.00121418 10.7241 1.63082
501.00 1127.15 1.672268 58.9854 1.37583 17.2174 0.720551 0.0833458 2.86508 0.00244495 6.40519 0.0011742 10.736 1.60765
401.00 1125.18 1.802147 59.1942 1.2925 17.2048 0.707955 0.0825342 2.82293 0.00236895 6.3597 0.00113535 10.7471 1.58473
301.00 1123.19 1.804263 59.4022 1.21016 17.1927 0.695007 0.0817236 2.78118 0.00229487 6.3141 0.00109754 10.7576 1.56195
201.00 1121.18 1.806719 59.6088 1.1291 17.181 0.68173 0.0809151 2.73988 0.00222272 6.26841 0.00106078 10.7677 1.53921
101.00 1119.13 1.809515 59.8136 1.04958 17.1699 0.668149 0.0801097 2.69906 0.00215247 6.22267 0.00102505 10.7773 1.51643
1.00 1117.05 1.812645 60.0164 0.971859 17.1592 0.654289 0.0793081 2.65874 0.00208412 6.17694 0.000990335 10.7867 1.49353