Title: Depleted MORB Mantle of Workmann & Hart 2005

Phase Masses:
Pressure Temperature mass liquid_0 olivine_0 garnet_0 orthopyroxene_0 clinopyroxene_0 feldspar_0 spinel_0 
44001.00 1214.32 100.138999 0.000000 59.064079 13.822721 13.769249 12.484590 0.000000 0.998360 
43901.00 1214.15 100.138999 0.000000 59.063595 13.815616 13.776306 12.484540 0.000000 0.998942 
43801.00 1213.98 100.138999 0.000000 59.063108 13.808462 13.783401 12.484501 0.000000 0.999528 
43701.00 1213.80 100.138999 0.000000 59.062617 13.801257 13.790534 12.484472 0.000000 1.000118 
43601.00 1213.63 100.138999 0.000000 59.062123 13.794003 13.797706 12.484455 0.000000 1.000712 
43501.00 1213.45 100.138999 0.000000 59.061624 13.786699 13.804917 12.484449 0.000000 1.001310 
43401.00 1213.28 100.138999 0.000000 59.061123 13.779343 13.812167 12.484454 0.000000 1.001912 
43301.00 1213.10 100.138999 0.000000 59.060617 13.771936 13.819456 12.484471 0.000000 1.002519 
43201.00 1212.93 100.138999 0.000000 59.060108 13.764477 13.826785 12.484499 0.000000 1.003130 
43101.00 1212.75 100.138999 0.000000 59.059595 13.756966 13.834155 12.484539 0.000000 1.003744 
43001.00 1212.58 100.138999 0.000000 59.059078 13.749402 13.841565 12.484591 0.000000 1.004364 
42901.00 1212.41 100.138999 0.000000 59.058557 13.741784 13.849016 12.484655 0.000000 1.004987 
42801.00 1212.23 100.138999 0.000000 59.058032 13.734113 13.856508 12.484731 0.000000 1.005616 
42701.00 1212.06 100.138999 0.000000 59.057503 13.726387 13.864042 12.484819 0.000000 1.006248 
42601.00 1211.88 100.138999 0.000000 59.056970 13.718607 13.871618 12.484919 0.000000 1.006885 
42501.00 1211.71 100.138999 0.000000 59.056433 13.710771 13.879236 12.485032 0.000000 1.007527 
42401.00 1211.53 100.138999 0.000000 59.055892 13.702879 13.886897 12.485158 0.000000 1.008174 
42301.00 1211.36 100.138999 0.000000 59.055346 13.694931 13.894601 12.485296 0.000000 1.008825 
42201.00 1211.18 100.138999 0.000000 59.054796 13.686926 13.902348 12.485447 0.000000 1.009481 
42101.00 1211.01 100.138999 0.000000 59.054242 13.678864 13.910140 12.485611 0.000000 1.010142 
42001.00 1210.84 100.138999 0.000000 59.053683 13.670744 13.917975 12.485789 0.000000 1.010808 
41901.00 1210.66 100.138999 0.000000 59.053119 13.662565 13.925855 12.485979 0.000000 1.011480 
41801.00 1210.49 100.138999 0.000000 59.052552 13.654327 13.933781 12.486184 0.000000 1.012156 
41701.00 1210.31 100.138999 0.000000 59.051979 13.646030 13.941752 12.486402 0.000000 1.012837 
41601.00 1210.14 100.138999 0.000000 59.051402 13.637672 13.949768 12.486633 0.000000 1.013524 
41501.00 1209.96 100.138999 0.000000 59.050820 13.629253 13.957831 12.486879 0.000000 1.014216 
41401.00 1209.79 100.138999 0.000000 59.050233 13.620774 13.965941 12.487139 0.000000 1.014913 
41301.00 1209.61 100.138999 0.000000 59.049641 13.612232 13.974098 12.487412 0.000000 1.015616 
41201.00 1209.44 100.138999 0.000000 59.049044 13.603627 13.982303 12.487701 0.000000 1.016324 
41101.00 1209.26 100.138999 0.000000 59.048443 13.594960 13.990555 12.488004 0.000000 1.017038 
41001.00 1209.09 100.138999 0.000000 59.047836 13.586228 13.998856 12.488321 0.000000 1.017758 
40901.00 1208.91 100.138999 0.000000 59.047223 13.577433 14.007206 12.488654 0.000000 1.018483 
40801.00 1208.74 100.138999 0.000000 59.046606 13.568572 14.015605 12.489002 0.000000 1.019214 
40701.00 1208.56 100.138999 0.000000 59.045983 13.559645 14.024055 12.489364 0.000000 1.019952 
40601.00 1208.39 100.138999 0.000000 59.045355 13.550652 14.032554 12.489743 0.000000 1.020695 
40501.00 1208.22 100.138999 0.000000 59.044721 13.541592 14.041105 12.490137 0.000000 1.021445 
40401.00 1208.04 100.138999 0.000000 59.044082 13.532465 14.049706 12.490546 0.000000 1.022200 
40301.00 1207.87 100.138999 0.000000 59.043437 13.523269 14.058360 12.490972 0.000000 1.022962 
40201.00 1207.69 100.138999 0.000000 59.042786 13.514004 14.067065 12.491413 0.000000 1.023731 
40101.00 1207.52 100.138999 0.000000 59.042129 13.504669 14.075824 12.491871 0.000000 1.024506 
40001.00 1207.34 100.138999 0.000000 59.041466 13.495264 14.084636 12.492346 0.000000 1.025287 
39901.00 1207.17 100.138999 0.000000 59.040798 13.485787 14.093502 12.492837 0.000000 1.026076 
39801.00 1206.99 100.138999 0.000000 59.040123 13.476239 14.102422 12.493345 0.000000 1.026871 
39701.00 1206.82 100.138999 0.000000 59.039442 13.466618 14.111397 12.493870 0.000000 1.027673 
39601.00 1206.64 100.138999 0.000000 59.038754 13.456924 14.120427 12.494412 0.000000 1.028482 
39501.00 1206.47 100.138999 0.000000 59.038060 13.447155 14.129513 12.494972 0.000000 1.029298 
39401.00 1206.29 100.138999 0.000000 59.037360 13.437312 14.138656 12.495549 0.000000 1.030122 
39301.00 1206.11 100.138999 0.000000 59.036653 13.427393 14.147856 12.496145 0.000000 1.030952 
39201.00 1205.94 100.138999 0.000000 59.035939 13.417398 14.157114 12.496758 0.000000 1.031791 
39101.00 1205.76 100.138999 0.000000 59.035218 13.407325 14.166430 12.497390 0.000000 1.032636 
39001.00 1205.59 100.138999 0.000000 59.034490 13.397174 14.175805 12.498040 0.000000 1.033490 
38901.00 1205.41 100.138999 0.000000 59.033755 13.386944 14.185240 12.498708 0.000000 1.034351 
38801.00 1205.24 100.138999 0.000000 59.033014 13.376635 14.194734 12.499396 0.000000 1.035221 
38701.00 1205.06 100.138999 0.000000 59.032264 13.366244 14.204290 12.500103 0.000000 1.036098 
38601.00 1204.89 100.138999 0.000000 59.031508 13.355773 14.213906 12.500829 0.000000 1.036984 
38501.00 1204.71 100.138999 0.000000 59.030743 13.345219 14.223585 12.501575 0.000000 1.037878 
38401.00 1204.54 100.138999 0.000000 59.029971 13.334581 14.233326 12.502340 0.000000 1.038780 
38301.00 1204.36 100.138999 0.000000 59.029192 13.323860 14.243131 12.503126 0.000000 1.039691 
38201.00 1204.19 100.138999 0.000000 59.028404 13.313053 14.252999 12.503932 0.000000 1.040611 
38101.00 1204.01 100.138999 0.000000 59.027608 13.302161 14.262932 12.504758 0.000000 1.041540 
38001.00 1203.83 100.138999 0.000000 59.026804 13.291181 14.272931 12.505605 0.000000 1.042477 
37901.00 1203.66 100.138999 0.000000 59.025992 13.280114 14.282996 12.506473 0.000000 1.043424 
37801.00 1203.48 100.138999 0.000000 59.025171 13.268957 14.293127 12.507363 0.000000 1.044381 
37701.00 1203.31 100.138999 0.000000 59.024342 13.257711 14.303326 12.508274 0.000000 1.045347 
37601.00 1203.13 100.138999 0.000000 59.023503 13.246374 14.313593 12.509207 0.000000 1.046322 
37501.00 1202.96 100.138999 0.000000 59.022656 13.234945 14.323929 12.510161 0.000000 1.047307 
37401.00 1202.78 100.138999 0.000000 59.021800 13.223423 14.334335 12.511138 0.000000 1.048303 
37301.00 1202.60 100.138999 0.000000 59.020935 13.211807 14.344811 12.512138 0.000000 1.049308 
37201.00 1202.43 100.138999 0.000000 59.020060 13.200096 14.355359 12.513161 0.000000 1.050324 
37101.00 1202.25 100.138999 0.000000 59.019175 13.188288 14.365979 12.514206 0.000000 1.051350 
37001.00 1202.08 100.138999 0.000000 59.018281 13.176384 14.376672 12.515275 0.000000 1.052387 
36901.00 1201.90 100.138999 0.000000 59.017377 13.164381 14.387438 12.516368 0.000000 1.053435 
36801.00 1201.72 100.138999 0.000000 59.016463 13.152278 14.398279 12.517485 0.000000 1.054494 
36701.00 1201.55 100.138999 0.000000 59.015538 13.140075 14.409196 12.518626 0.000000 1.055564 
36601.00 1201.37 100.138999 0.000000 59.014603 13.127769 14.420189 12.519791 0.000000 1.056646 
36501.00 1201.20 100.138999 0.000000 59.013658 13.115361 14.431259 12.520981 0.000000 1.057740 
36401.00 1201.02 100.138999 0.000000 59.012702 13.102848 14.442407 12.522197 0.000000 1.058845 
36301.00 1200.84 100.138999 0.000000 59.011734 13.090230 14.453635 12.523438 0.000000 1.059962 
36201.00 1200.67 100.138999 0.000000 59.010756 13.077504 14.464942 12.524705 0.000000 1.061092 
36101.00 1200.49 100.138999 0.000000 59.009765 13.064671 14.476330 12.525998 0.000000 1.062234 
36001.00 1200.31 100.138999 0.000000 59.008764 13.051728 14.487800 12.527318 0.000000 1.063389 
35901.00 1200.14 100.138999 0.000000 59.007750 13.038674 14.499353 12.528664 0.000000 1.064557 
35801.00 1199.96 100.138999 0.000000 59.006724 13.025508 14.510990 12.530038 0.000000 1.065739 
35701.00 1199.78 100.138999 0.000000 59.005686 13.012229 14.522712 12.531439 0.000000 1.066933 
35601.00 1199.61 100.138999 0.000000 59.004636 12.998834 14.534519 12.532868 0.000000 1.068142 
35501.00 1199.43 100.138999 0.000000 59.003573 12.985324 14.546414 12.534325 0.000000 1.069364 
35401.00 1199.25 100.138999 0.000000 59.002496 12.971695 14.558397 12.535810 0.000000 1.070601 
35301.00 1199.08 100.138999 0.000000 59.001407 12.957947 14.570469 12.537325 0.000000 1.071852 
35201.00 1198.90 100.138999 0.000000 59.000303 12.944078 14.582631 12.538869 0.000000 1.073118 
35101.00 1198.72 100.138999 0.000000 58.999187 12.930087 14.594885 12.540442 0.000000 1.074399 
35001.00 1198.55 100.138999 0.000000 58.998055 12.915971 14.607231 12.542046 0.000000 1.075696 
34901.00 1198.37 100.138999 0.000000 58.996910 12.901731 14.619671 12.543680 0.000000 1.077008 
34801.00 1198.19 100.138999 0.000000 58.995750 12.887363 14.632206 12.545345 0.000000 1.078336 
34701.00 1198.02 100.138999 0.000000 58.994575 12.872866 14.644837 12.547041 0.000000 1.079680 
34601.00 1197.84 100.138999 0.000000 58.993385 12.858238 14.657566 12.548769 0.000000 1.081041 
34501.00 1197.66 100.138999 0.000000 58.992180 12.843479 14.670393 12.550529 0.000000 1.082419 
34401.00 1197.48 100.138999 0.000000 58.990958 12.828585 14.683320 12.552322 0.000000 1.083814 
34301.00 1197.31 100.138999 0.000000 58.989721 12.813556 14.696349 12.554147 0.000000 1.085226 
34201.00 1197.13 100.138999 0.000000 58.988467 12.798389 14.709481 12.556006 0.000000 1.086657 
34101.00 1196.95 100.138999 0.000000 58.987196 12.783082 14.722716 12.557899 0.000000 1.088105 
34001.00 1196.77 100.138999 0.000000 58.985908 12.767634 14.736057 12.559826 0.000000 1.089573 
33901.00 1196.60 100.138999 0.000000 58.984603 12.752043 14.749505 12.561788 0.000000 1.091059 
33801.00 1196.42 100.138999 0.000000 58.983280 12.736307 14.763062 12.563786 0.000000 1.092565 
33701.00 1196.24 100.138999 0.000000 58.981938 12.720423 14.776728 12.565819 0.000000 1.094091 
33601.00 1196.06 100.138999 0.000000 58.980578 12.704390 14.790506 12.567888 0.000000 1.095637 
33501.00 1195.88 100.138999 0.000000 58.979199 12.688206 14.804397 12.569994 0.000000 1.097203 
33401.00 1195.71 100.138999 0.000000 58.977801 12.671868 14.818402 12.572138 0.000000 1.098791 
33301.00 1195.53 100.138999 0.000000 58.976383 12.655374 14.832524 12.574319 0.000000 1.100400 
33201.00 1195.35 100.138999 0.000000 58.974945 12.638722 14.846763 12.576539 0.000000 1.102030 
33101.00 1195.17 100.138999 0.000000 58.973486 12.621910 14.861122 12.578797 0.000000 1.103684 
33001.00 1194.99 100.138999 0.000000 58.972006 12.604936 14.875602 12.581095 0.000000 1.105360 
32901.00 1194.81 100.138999 0.000000 58.970504 12.587796 14.890206 12.583433 0.000000 1.107060 
32801.00 1194.64 100.138999 0.000000 58.968981 12.570490 14.904934 12.585812 0.000000 1.108783 
32701.00 1194.46 100.138999 0.000000 58.967435 12.553013 14.919789 12.588232 0.000000 1.110531 
32601.00 1194.28 100.138999 0.000000 58.965866 12.535364 14.934772 12.590693 0.000000 1.112304 
32501.00 1194.10 100.138999 0.000000 58.964274 12.517540 14.949886 12.593197 0.000000 1.114102 
32401.00 1193.92 100.138999 0.000000 58.962657 12.499539 14.965133 12.595744 0.000000 1.115926 
32301.00 1193.74 100.138999 0.000000 58.961016 12.481358 14.980514 12.598335 0.000000 1.117776 
32201.00 1193.56 100.138999 0.000000 58.959350 12.462993 14.996031 12.600970 0.000000 1.119654 
32101.00 1193.38 100.138999 0.000000 58.957659 12.444443 15.011688 12.603650 0.000000 1.121560 
32001.00 1193.20 100.138999 0.000000 58.955941 12.425704 15.027485 12.606376 0.000000 1.123493 
31901.00 1193.02 100.138999 0.000000 58.954197 12.406774 15.043425 12.609148 0.000000 1.125456 
31801.00 1192.85 100.138999 0.000000 58.952425 12.387649 15.059510 12.611967 0.000000 1.127449 
31701.00 1192.67 100.138999 0.000000 58.950625 12.368327 15.075743 12.614834 0.000000 1.129471 
31601.00 1192.49 100.138999 0.000000 58.948796 12.348803 15.092126 12.617749 0.000000 1.131525 
31501.00 1192.31 100.138999 0.000000 58.946938 12.329076 15.108661 12.620714 0.000000 1.133610 
31401.00 1192.13 100.138999 0.000000 58.945050 12.309141 15.125351 12.623729 0.000000 1.135728 
31301.00 1191.95 100.138999 0.000000 58.943132 12.288996 15.142198 12.626794 0.000000 1.137879 
31201.00 1191.77 100.138999 0.000000 58.941182 12.268637 15.159205 12.629911 0.000000 1.140064 
31101.00 1191.59 100.138999 0.000000 58.939200 12.248060 15.176375 12.633081 0.000000 1.142283 
31001.00 1191.41 100.138999 0.000000 58.937185 12.227262 15.193710 12.636304 0.000000 1.144539 
30901.00 1191.23 100.138999 0.000000 58.935136 12.206239 15.211213 12.639581 0.000000 1.146830 
30801.00 1191.04 100.138999 0.000000 58.933053 12.184987 15.228887 12.642913 0.000000 1.149159 
30701.00 1190.86 100.138999 0.000000 58.930934 12.163503 15.246735 12.646302 0.000000 1.151525 
30601.00 1190.68 100.138999 0.000000 58.928779 12.141782 15.264760 12.649747 0.000000 1.153931 
30501.00 1190.50 100.138999 0.000000 58.926587 12.119821 15.282965 12.653250 0.000000 1.156377 
30401.00 1190.32 100.138999 0.000000 58.924358 12.097615 15.301352 12.656811 0.000000 1.158863 
30301.00 1190.14 100.138999 0.000000 58.922089 12.075160 15.319926 12.660432 0.000000 1.161392 
30201.00 1189.96 100.138999 0.000000 58.919781 12.052451 15.338690 12.664115 0.000000 1.163963 
30101.00 1189.78 100.138999 0.000000 58.917431 12.029485 15.357646 12.667859 0.000000 1.166578 
30001.00 1189.60 100.138999 0.000000 58.915040 12.006256 15.376799 12.671665 0.000000 1.169238 
29901.00 1189.41 100.138999 0.000000 58.912606 11.982760 15.396152 12.675536 0.000000 1.171945 
29801.00 1189.23 100.138999 0.000000 58.910128 11.958992 15.415708 12.679472 0.000000 1.174698 
29701.00 1189.05 100.138999 0.000000 58.907605 11.934948 15.435472 12.683474 0.000000 1.177500 
29601.00 1188.87 100.138999 0.000000 58.905036 11.910621 15.455447 12.687543 0.000000 1.180352 
29501.00 1188.69 100.138999 0.000000 58.902419 11.886007 15.475637 12.691681 0.000000 1.183255 
29401.00 1188.50 100.138999 0.000000 58.899754 11.861100 15.496047 12.695889 0.000000 1.186210 
29301.00 1188.32 100.138999 0.000000 58.897039 11.835895 15.516679 12.700167 0.000000 1.189218 
29201.00 1188.14 100.138999 0.000000 58.894273 11.810387 15.537540 12.704518 0.000000 1.192281 
29101.00 1187.96 100.138999 0.000000 58.891455 11.784569 15.558632 12.708943 0.000000 1.195400 
29001.00 1187.77 100.138999 0.000000 58.888583 11.758436 15.579961 12.713442 0.000000 1.198578 
28901.00 1187.59 100.138999 0.000000 58.885655 11.731981 15.601530 12.718018 0.000000 1.201814 
28801.00 1187.41 100.138999 0.000000 58.882671 11.705199 15.623346 12.722672 0.000000 1.205111 
28701.00 1187.22 100.138999 0.000000 58.879629 11.678082 15.645412 12.727405 0.000000 1.208470 
28601.00 1187.04 100.138999 0.000000 58.876528 11.650625 15.667734 12.732219 0.000000 1.211894 
28501.00 1186.86 100.138999 0.000000 58.873365 11.622820 15.690317 12.737115 0.000000 1.215383 
28401.00 1186.67 100.138999 0.000000 58.870139 11.594661 15.713166 12.742094 0.000000 1.218939 
28301.00 1186.49 100.138999 0.000000 58.866849 11.566140 15.736286 12.747160 0.000000 1.222564 
28201.00 1186.30 100.138999 0.000000 58.863493 11.537250 15.759683 12.752312 0.000000 1.226261 
28101.00 1186.12 100.138999 0.000000 58.860068 11.507984 15.783364 12.757553 0.000000 1.230030 
28001.00 1185.93 100.138999 0.000000 58.856574 11.478334 15.807332 12.762885 0.000000 1.233874 
27901.00 1185.75 100.138999 0.000000 58.853008 11.448291 15.831596 12.768309 0.000000 1.237795 
27801.00 1185.56 100.138999 0.000000 58.849368 11.417849 15.856160 12.773828 0.000000 1.241795 
27701.00 1185.38 100.138999 0.000000 58.845652 11.386997 15.881032 12.779443 0.000000 1.245876 
27601.00 1185.19 100.138999 0.000000 58.841859 11.355728 15.906217 12.785155 0.000000 1.250040 
27501.00 1185.01 100.138999 0.000000 58.837986 11.324033 15.931723 12.790968 0.000000 1.254289 
27401.00 1184.82 100.138999 0.000000 58.834030 11.291902 15.957557 12.796883 0.000000 1.258627 
27301.00 1184.64 100.138999 0.000000 58.829990 11.259327 15.983725 12.802902 0.000000 1.263054 
27201.00 1184.45 100.138999 0.000000 58.825864 11.226297 16.010235 12.809028 0.000000 1.267575 
27101.00 1184.26 100.138999 0.000000 58.821648 11.192803 16.037094 12.815263 0.000000 1.272190 
27001.00 1184.08 100.138999 0.000000 58.817341 11.158835 16.064311 12.821608 0.000000 1.276904 
26901.00 1183.89 100.138999 0.000000 58.812939 11.124381 16.091893 12.828067 0.000000 1.281718 
26801.00 1183.70 100.138999 0.000000 58.808441 11.089432 16.119848 12.834642 0.000000 1.286636 
26701.00 1183.51 100.138999 0.000000 58.803842 11.053976 16.148186 12.841335 0.000000 1.291660 
26601.00 1183.33 100.138999 0.000000 58.799142 11.018001 16.176913 12.848149 0.000000 1.296794 
26501.00 1183.14 100.138999 0.000000 58.794336 10.981496 16.206040 12.855086 0.000000 1.302040 
26401.00 1182.95 100.138999 0.000000 58.789422 10.944449 16.235576 12.862150 0.000000 1.307402 
26301.00 1182.76 100.138999 0.000000 58.784396 10.906848 16.265529 12.869343 0.000000 1.312882 
26201.00 1182.57 100.138999 0.000000 58.779256 10.868679 16.295911 12.876668 0.000000 1.318485 
26101.00 1182.38 100.138999 0.000000 58.773998 10.829930 16.326730 12.884128 0.000000 1.324214 
26001.00 1182.20 100.138999 0.000000 58.768618 10.790587 16.357996 12.891726 0.000000 1.330071 
25901.00 1182.01 100.138999 0.000000 58.763114 10.750636 16.389722 12.899465 0.000000 1.336062 
25801.00 1181.82 100.138999 0.000000 58.757482 10.710062 16.421916 12.907348 0.000000 1.342190 
25701.00 1181.63 100.138999 0.000000 58.751718 10.668852 16.454591 12.915380 0.000000 1.348458 
25601.00 1181.44 100.138999 0.000000 58.745818 10.626990 16.487758 12.923562 0.000000 1.354871 
25501.00 1181.24 100.138999 0.000000 58.739778 10.584460 16.521429 12.931899 0.000000 1.361433 
25401.00 1181.05 100.138999 0.000000 58.733594 10.541246 16.555615 12.940395 0.000000 1.368149 
25301.00 1180.86 100.138999 0.000000 58.727263 10.497332 16.590330 12.949053 0.000000 1.375021 
25201.00 1180.67 100.138999 0.000000 58.720779 10.452701 16.625586 12.957876 0.000000 1.382056 
25101.00 1180.48 100.138999 0.000000 58.714138 10.407336 16.661397 12.966870 0.000000 1.389258 
25001.00 1180.29 100.138999 0.000000 58.707337 10.361218 16.697775 12.976038 0.000000 1.396632 
24901.00 1180.09 100.138999 0.000000 58.700369 10.314329 16.734735 12.985384 0.000000 1.404182 
24801.00 1179.90 100.138999 0.000000 58.693231 10.266650 16.772292 12.994913 0.000000 1.411914 
24701.00 1179.71 100.138999 0.000000 58.685916 10.218161 16.810460 13.004629 0.000000 1.419833 
24601.00 1179.51 100.138999 0.000000 58.678421 10.168843 16.849254 13.014537 0.000000 1.427944 
24501.00 1179.32 100.138999 0.000000 58.670740 10.118674 16.888690 13.024641 0.000000 1.436254 
24401.00 1179.12 100.138999 0.000000 58.662867 10.067633 16.928784 13.034946 0.000000 1.444768 
24301.00 1178.93 100.138999 0.000000 58.654797 10.015699 16.969553 13.045458 0.000000 1.453491 
24201.00 1178.73 100.138999 0.000000 58.646524 9.962849 17.011013 13.056182 0.000000 1.462430 
24101.00 1178.54 100.138999 0.000000 58.638042 9.909059 17.053183 13.067123 0.000000 1.471592 
24001.00 1178.34 100.138999 0.000000 58.629345 9.854306 17.096079 13.078287 0.000000 1.480982 
23901.00 1178.15 100.138999 0.000000 58.620427 9.798565 17.139721 13.089678 0.000000 1.490608 
23801.00 1177.95 100.138999 0.000000 58.611280 9.741811 17.184128 13.101304 0.000000 1.500476 
23701.00 1177.75 100.138999 0.000000 58.601899 9.684017 17.229320 13.113171 0.000000 1.510593 
