Title: Depleted MORB Mantle of Workmann & Hart 2005

liquid_0 thermodynamic data and composition:
Pressure Temperature mass S H V Cp viscosity SiO2 TiO2 Al2O3 Fe2O3 Cr2O3 FeO MnO MgO NiO CaO Na2O
17501.00 1366.98 0.003669 0.010666 -42.233395 0.001306 0.005668 1.154 47.5202 0.821691 16.1548 0.14435 0.288389 7.28767 0.0291031 12.535 0.0170678 5.2563 9.94548
17401.00 1366.64 0.037840 0.109953 -435.848995 0.013473 0.058454 1.162 47.5663 0.82088 16.1717 0.14589 0.285209 7.27394 0.0288029 12.5259 0.0168863 5.30297 9.86144
17301.00 1366.29 0.072536 0.210690 -836.103435 0.025833 0.112060 1.170 47.6122 0.820082 16.1884 0.147459 0.282036 7.26035 0.0285041 12.517 0.0167056 5.35018 9.777
17201.00 1365.94 0.107775 0.312923 -1243.204883 0.038394 0.166510 1.178 47.6579 0.819298 16.2049 0.14906 0.278872 7.2469 0.0282066 12.5082 0.0165259 5.39793 9.69215
17101.00 1365.59 0.143573 0.416701 -1657.369706 0.051161 0.221834 1.185 47.7034 0.818528 16.2211 0.150692 0.275718 7.23358 0.0279105 12.4996 0.0163471 5.44623 9.6069
17001.00 1365.24 0.179951 0.522074 -2078.822837 0.064141 0.278058 1.193 47.7486 0.817771 16.2371 0.152356 0.272573 7.2204 0.0276158 12.491 0.0161691 5.49509 9.52126
16901.00 1364.88 0.216926 0.629094 -2507.798147 0.077341 0.335214 1.201 47.7936 0.817027 16.2529 0.154054 0.269437 7.20735 0.0273224 12.4826 0.0159921 5.54451 9.43523
16801.00 1364.52 0.254518 0.737816 -2944.538851 0.090767 0.393330 1.209 47.8383 0.816297 16.2684 0.155785 0.266313 7.19444 0.0270305 12.4743 0.015816 5.5945 9.34881
16701.00 1364.17 0.292749 0.848297 -3389.297915 0.104429 0.452441 1.216 47.8828 0.815579 16.2836 0.157551 0.263199 7.18167 0.02674 12.4661 0.0156408 5.64506 9.26201
16601.00 1363.81 0.331639 0.960594 -3842.338495 0.118332 0.512578 1.224 47.927 0.814875 16.2986 0.159353 0.260097 7.16903 0.026451 12.4581 0.0154665 5.6962 9.17483
16501.00 1363.44 0.371210 1.074770 -4303.934382 0.132486 0.573776 1.232 47.9709 0.814183 16.3134 0.16119 0.257006 7.15653 0.0261633 12.4501 0.0152931 5.74792 9.08728
16401.00 1363.08 0.411487 1.190887 -4774.370473 0.146898 0.636072 1.239 48.0146 0.813503 16.3279 0.163065 0.253927 7.14417 0.0258771 12.4423 0.0151207 5.80023 8.99936
16301.00 1362.71 0.452494 1.309012 -5253.943263 0.161578 0.699502 1.247 48.0579 0.812836 16.3421 0.164978 0.250862 7.13193 0.0255923 12.4346 0.0149492 5.85314 8.91107
16201.00 1362.34 0.494254 1.429213 -5742.961355 0.176534 0.764106 1.255 48.101 0.81218 16.3561 0.166929 0.247809 7.11984 0.0253089 12.427 0.0147786 5.90664 8.82244
16101.00 1361.97 0.536796 1.551563 -6241.745986 0.191775 0.829924 1.262 48.1438 0.811536 16.3698 0.16892 0.24477 7.10787 0.0250271 12.4194 0.014609 5.96075 8.73345
16001.00 1361.60 0.580145 1.676135 -6750.631582 0.207313 0.896999 1.270 48.1863 0.810903 16.3833 0.170952 0.241746 7.09603 0.0247466 12.412 0.0144403 6.01546 8.64412
15901.00 1361.23 0.624330 1.803007 -7269.966327 0.223156 0.965375 1.278 48.2284 0.81028 16.3965 0.173025 0.238736 7.08433 0.0244677 12.4047 0.0142725 6.07079 8.55445
15801.00 1360.85 0.669381 1.932260 -7800.112762 0.239315 1.035096 1.285 48.2703 0.809668 16.4095 0.175141 0.235741 7.07275 0.0241902 12.3975 0.0141057 6.12674 8.46446
15701.00 1360.47 0.715328 2.063976 -8341.448393 0.255802 1.106212 1.293 48.3118 0.809066 16.4221 0.1773 0.232761 7.06129 0.0239142 12.3904 0.0139398 6.1833 8.37415
15601.00 1360.08 0.762204 2.198245 -8894.366337 0.272628 1.178771 1.301 48.353 0.808473 16.4346 0.179503 0.229798 7.04996 0.0236396 12.3833 0.0137749 6.24049 8.28352
15501.00 1359.70 0.810041 2.335156 -9459.275974 0.289805 1.252825 1.308 48.3938 0.807888 16.4467 0.181751 0.226852 7.03875 0.0233666 12.3764 0.013611 6.2983 8.1926
15401.00 1359.31 0.858875 2.474804 -10036.603631 0.307346 1.328427 1.316 48.4343 0.807311 16.4586 0.184045 0.223923 7.02766 0.0230951 12.3695 0.013448 6.35674 8.10138
15301.00 1358.91 0.908741 2.617287 -10626.793280 0.325263 1.405634 1.323 48.4745 0.806742 16.4702 0.186385 0.221011 7.01668 0.022825 12.3626 0.0132859 6.41581 8.00988
15201.00 1358.52 0.959677 2.762708 -11230.307270 0.343570 1.484504 1.331 48.5144 0.806179 16.4815 0.188774 0.218118 7.00581 0.0225565 12.3559 0.0131248 6.47551 7.91811
15101.00 1358.12 1.011722 2.911172 -11847.627054 0.362282 1.565097 1.338 48.5539 0.805622 16.4926 0.191212 0.215244 6.99505 0.0222895 12.3492 0.0129647 6.53585 7.82608
15001.00 1357.72 1.054359 3.032427 -12355.533766 0.377631 1.631144 1.346 48.593 0.805072 16.5034 0.1937 0.212386 6.98442 0.0220241 12.3426 0.0128055 6.59685 7.73377
14901.00 1357.31 1.054382 3.031049 -12364.385393 0.377719 1.631268 1.353 48.6316 0.804543 16.5139 0.196243 0.209537 6.974 0.0217601 12.3361 0.0126474 6.65862 7.641
14801.00 1356.91 1.054415 3.029684 -12373.315872 0.377808 1.631405 1.361 48.6697 0.804033 16.5242 0.198843 0.206695 6.9638 0.0214977 12.3298 0.0124902 6.72116 7.54779
14701.00 1356.50 1.054456 3.028332 -12382.329438 0.377900 1.631556 1.368 48.7073 0.803544 16.5341 0.201501 0.203862 6.95382 0.0212368 12.3237 0.012334 6.78449 7.45413
14601.00 1356.09 1.054507 3.026995 -12391.430603 0.377993 1.631723 1.375 48.7443 0.803074 16.5437 0.204218 0.201038 6.94406 0.0209774 12.3178 0.0121788 6.84862 7.36004
14501.00 1355.68 1.054569 3.025674 -12400.624124 0.378088 1.631905 1.383 48.7808 0.802624 16.5531 0.206997 0.198223 6.93452 0.0207196 12.312 0.0120246 6.91356 7.26551
14401.00 1355.27 1.054641 3.024370 -12409.914994 0.378186 1.632103 1.390 48.8167 0.802195 16.5621 0.209838 0.195418 6.9252 0.0204633 12.3064 0.0118713 6.97931 7.17056
14301.00 1354.86 1.054725 3.023084 -12419.308517 0.378286 1.632318 1.397 48.852 0.801785 16.5708 0.212744 0.192623 6.91611 0.0202086 12.3009 0.0117191 7.04588 7.07518
14201.00 1354.44 1.054820 3.021818 -12428.810295 0.378388 1.632551 1.404 48.8868 0.801396 16.5793 0.215715 0.189839 6.90724 0.0199554 12.2956 0.0115679 7.11329 6.97938
14101.00 1354.02 1.054928 3.020572 -12438.426227 0.378494 1.632803 1.411 48.9209 0.801026 16.5874 0.218754 0.187066 6.89859 0.0197038 12.2904 0.0114176 7.18153 6.88317
14001.00 1353.60 1.055048 3.019348 -12448.162553 0.378602 1.633074 1.418 48.9545 0.800676 16.5952 0.221863 0.184305 6.89017 0.0194538 12.2854 0.0112684 7.25063 6.78655
13901.00 1353.18 1.055182 3.018148 -12458.025873 0.378713 1.633366 1.426 48.9874 0.800346 16.6027 0.225042 0.181556 6.88197 0.0192053 12.2805 0.0111201 7.32058 6.68954
13801.00 1352.75 1.055330 3.016973 -12468.023145 0.378827 1.633678 1.432 49.0197 0.800034 16.6099 0.228293 0.178819 6.87399 0.0189583 12.2758 0.0109729 7.3914 6.59213
13701.00 1352.33 1.055492 3.015825 -12478.161738 0.378945 1.634013 1.439 49.0514 0.799742 16.6167 0.231619 0.176095 6.86623 0.018713 12.2712 0.0108266 7.46308 6.49435
13601.00 1351.90 1.055670 3.014705 -12488.449432 0.379067 1.634372 1.446 49.0824 0.799468 16.6233 0.23502 0.173385 6.8587 0.0184692 12.2667 0.0106814 7.53565 6.39619
13501.00 1351.47 1.055864 3.013616 -12498.894452 0.379193 1.634754 1.453 49.1128 0.799212 16.6295 0.238499 0.170688 6.85138 0.0182269 12.2624 0.0105371 7.6091 6.29766
13401.00 1351.03 1.056075 3.012559 -12509.505496 0.379323 1.635162 1.460 49.1425 0.798974 16.6355 0.242058 0.168007 6.84429 0.0179863 12.2581 0.0103939 7.68344 6.19878
13301.00 1350.59 1.056303 3.011536 -12520.291758 0.379458 1.635597 1.467 49.1715 0.798753 16.6411 0.245698 0.16534 6.8374 0.0177473 12.254 0.0102517 7.75868 6.09956
13201.00 1350.15 1.056549 3.010549 -12531.262961 0.379597 1.636060 1.473 49.1999 0.798549 16.6463 0.24942 0.162689 6.83073 0.0175098 12.25 0.0101104 7.83481 6
13101.00 1349.71 1.056815 3.009601 -12542.429402 0.379742 1.636552 1.480 49.2275 0.79836 16.6513 0.253227 0.160054 6.82427 0.0172739 12.246 0.00997023 7.91185 5.90012
13001.00 1349.27 1.057101 3.008694 -12553.801941 0.379892 1.637074 1.487 49.2545 0.798187 16.656 0.257121 0.157436 6.81802 0.0170397 12.2421 0.00983103 7.98981 5.79994
12901.00 1348.82 1.057408 3.007830 -12565.392104 0.380048 1.637629 1.493 49.2808 0.798027 16.6603 0.261102 0.154834 6.81197 0.016807 12.2383 0.00969283 8.06867 5.69946
12801.00 1348.37 1.057737 3.007012 -12577.212080 0.380210 1.638217 1.500 49.3064 0.797881 16.6643 0.265173 0.152251 6.80612 0.0165759 12.2346 0.00955565 8.14844 5.5987
12701.00 1347.91 1.058090 3.006244 -12589.274752 0.380379 1.638840 1.506 49.3313 0.797746 16.668 0.269335 0.149686 6.80047 0.0163464 12.2309 0.00941948 8.22913 5.49768
12601.00 1347.45 1.058466 3.005527 -12601.593760 0.380555 1.639500 1.512 49.3555 0.797623 16.6713 0.27359 0.14714 6.795 0.0161186 12.2273 0.00928433 8.31074 5.39641
12501.00 1346.99 1.058869 3.004865 -12614.183563 0.380739 1.640199 1.519 49.379 0.797509 16.6744 0.27794 0.144613 6.78971 0.0158924 12.2236 0.0091502 8.39326 5.29491
12401.00 1346.53 1.059297 3.004262 -12627.059469 0.380930 1.640938 1.525 49.4018 0.797403 16.6771 0.282386 0.142107 6.7846 0.0156678 12.22 0.00901708 8.47669 5.19319
12301.00 1346.06 1.059754 3.003720 -12640.237658 0.381130 1.641719 1.531 49.424 0.797304 16.6795 0.286928 0.139621 6.77966 0.0154448 12.2164 0.00888499 8.56103 5.09129
12201.00 1345.59 1.060241 3.003244 -12653.735305 0.381339 1.642545 1.537 49.4454 0.797209 16.6816 0.29157 0.137156 6.77488 0.0152234 12.2128 0.00875392 8.64628 4.98921
12101.00 1345.11 1.060758 3.002837 -12667.570586 0.381557 1.643417 1.543 49.4661 0.797117 16.6833 0.296311 0.134714 6.77025 0.0150037 12.2091 0.00862388 8.73244 4.88698
12001.00 1344.63 1.061307 3.002504 -12681.762761 0.381786 1.644338 1.549 49.4862 0.797026 16.6848 0.301153 0.132294 6.76577 0.0147857 12.2054 0.00849486 8.81948 4.78462
11901.00 1344.14 1.061891 3.002248 -12696.332236 0.382025 1.645311 1.555 49.5056 0.796933 16.686 0.306098 0.129897 6.76142 0.0145693 12.2016 0.00836688 8.90742 4.68216
11801.00 1343.65 1.062510 3.002076 -12711.300639 0.382276 1.646338 1.561 49.5243 0.796836 16.6868 0.311145 0.127524 6.75718 0.0143545 12.1978 0.00823993 8.99624 4.57961
11701.00 1343.16 1.063167 3.001990 -12726.690888 0.382539 1.647421 1.567 49.5424 0.796733 16.6874 0.316296 0.125176 6.75306 0.0141414 12.1938 0.00811401 9.08592 4.47701
11601.00 1342.66 1.063863 3.001997 -12742.527290 0.382815 1.648563 1.573 49.5598 0.79662 16.6876 0.321551 0.122853 6.74903 0.01393 12.1897 0.00798914 9.17646 4.37438
11501.00 1342.16 1.064601 3.002103 -12758.835580 0.383105 1.649768 1.579 49.5767 0.796494 16.6876 0.32691 0.120556 6.74509 0.0137203 12.1855 0.00786531 9.26784 4.27176
11401.00 1341.65 1.065382 3.002312 -12775.643069 0.383409 1.651039 1.585 49.5929 0.796353 16.6873 0.332375 0.118285 6.74121 0.0135123 12.1811 0.00774253 9.36004 4.16917
11301.00 1341.14 1.066209 3.002631 -12792.978697 0.383729 1.652378 1.591 49.6086 0.796192 16.6867 0.337944 0.116042 6.73739 0.0133059 12.1766 0.0076208 9.45306 4.06663
11201.00 1340.62 1.067084 3.003066 -12810.873140 0.384065 1.653790 1.596 49.6237 0.796007 16.6858 0.343617 0.113826 6.7336 0.0131013 12.1718 0.00750013 9.54686 3.9642
11101.00 1340.09 1.068010 3.003625 -12829.358923 0.384418 1.655278 1.602 49.6383 0.795795 16.6846 0.349394 0.11164 6.72983 0.0128984 12.1668 0.00738051 9.64143 3.86189
11001.00 1339.56 1.068989 3.004314 -12848.470514 0.384790 1.656846 1.608 49.6524 0.795551 16.6832 0.355274 0.109482 6.72605 0.0126972 12.1616 0.00726197 9.73674 3.75975
10901.00 1339.03 1.070024 3.005142 -12868.244454 0.385182 1.658499 1.613 49.666 0.79527 16.6815 0.361256 0.107355 6.72225 0.0124978 12.1561 0.00714449 9.83277 3.65781
10801.00 1338.48 1.071119 3.006116 -12888.719445 0.385594 1.660240 1.619 49.6793 0.794947 16.6796 0.367339 0.105259 6.71841 0.0123001 12.1503 0.00702809 9.92949 3.55612
10701.00 1337.93 1.072275 3.007244 -12909.936502 0.386029 1.662075 1.625 49.6921 0.794576 16.6774 0.37352 0.103195 6.7145 0.0121042 12.1441 0.00691278 10.0269 3.4547
10601.00 1337.37 1.073497 3.008537 -12931.939055 0.386486 1.664008 1.630 49.7046 0.794152 16.675 0.379797 0.101162 6.71049 0.01191 12.1376 0.00679855 10.1249 3.3536
10501.00 1336.81 1.074788 3.010004 -12954.773076 0.386969 1.666045 1.636 49.7168 0.793668 16.6724 0.386168 0.0991634 6.70637 0.0117177 12.1307 0.00668542 10.2234 3.25288
10401.00 1336.24 1.076152 3.011654 -12978.487207 0.387478 1.668191 1.642 49.7288 0.793118 16.6695 0.39263 0.0971982 6.70211 0.0115272 12.1234 0.0065734 10.3226 3.15256
10301.00 1335.66 1.077592 3.013499 -13003.132881 0.388015 1.670452 1.647 49.7406 0.792495 16.6665 0.399179 0.0952677 6.69767 0.0113385 12.1157 0.00646248 10.4222 3.05269
10201.00 1335.07 1.079113 3.015549 -13028.764432 0.388581 1.672834 1.653 49.7522 0.79179 16.6632 0.405811 0.0933726 6.69303 0.0111516 12.1075 0.00635269 10.5223 2.95334
10101.00 1334.47 1.080719 3.017817 -13055.439219 0.389179 1.675344 1.659 49.7638 0.790996 16.6598 0.412522 0.0915138 6.68816 0.0109666 12.0988 0.00624402 10.6228 2.85454
10001.00 1333.87 1.082415 3.020314 -13083.217716 0.389810 1.677988 1.665 49.7753 0.790105 16.6562 0.419307 0.0896919 6.68301 0.0107835 12.0895 0.00613649 10.7236 2.75634
9901.00 1333.25 1.084204 3.023055 -13112.163595 0.390476 1.680774 1.671 49.787 0.789107 16.6524 0.42616 0.0879079 6.67757 0.0106022 12.0797 0.00603011 10.8248 2.6588
9801.00 1332.63 1.086093 3.026053 -13142.343790 0.391179 1.683709 1.676 49.7988 0.787992 16.6484 0.433074 0.0861624 6.67179 0.0104229 12.0693 0.00592488 10.9262 2.56198
9701.00 1331.99 1.088087 3.029322 -13173.828521 0.391921 1.686800 1.682 49.8108 0.786751 16.6444 0.440044 0.0844564 6.66563 0.0102456 12.0582 0.00582082 11.0277 2.46593
9601.00 1331.35 1.090190 3.032878 -13206.691289 0.392705 1.690057 1.688 49.8231 0.785373 16.6402 0.447062 0.0827907 6.65906 0.0100702 12.0465 0.00571794 11.1294 2.37071
9501.00 1330.69 1.092409 3.036736 -13241.008809 0.393533 1.693488 1.695 49.8358 0.783846 16.6359 0.45412 0.0811661 6.65204 0.00989674 12.0341 0.00561626 11.2311 2.27638
9401.00 1330.02 1.094750 3.040911 -13276.860878 0.394407 1.697101 1.701 49.849 0.782158 16.6314 0.461208 0.0795834 6.64452 0.00972533 12.021 0.00551577 11.3328 2.183
9301.00 1329.34 1.097218 3.045422 -13314.330166 0.395330 1.700906 1.707 49.8629 0.780298 16.6269 0.468318 0.0780436 6.63645 0.00955596 12.0071 0.0054165 11.4344 2.09064
9201.00 1328.65 1.099820 3.050285 -13353.501880 0.396305 1.704912 1.714 49.8774 0.778251 16.6223 0.47544 0.0765475 6.6278 0.00938865 11.9924 0.00531846 11.5358 1.99937
9101.00 1327.94 1.102562 3.055517 -13394.463319 0.397333 1.709129 1.720 49.8928 0.776005 16.6176 0.482562 0.0750961 6.61852 0.00922344 11.9769 0.00522167 11.6368 1.90924
9001.00 1327.22 1.105451 3.061137 -13437.303240 0.398419 1.713567 1.727 49.9091 0.773544 16.6128 0.489673 0.0736903 6.60855 0.00906035 11.9605 0.00512614 11.7375 1.82035
8901.00 1326.49 1.108493 3.067162 -13482.111031 0.399564 1.718234 1.734 49.9265 0.770853 16.608 0.496761 0.0723311 6.59784 0.00889941 11.9433 0.00503188 11.8377 1.73274
8801.00 1325.74 1.111694 3.073610 -13528.975619 0.400771 1.723141 1.742 49.9452 0.767918 16.6031 0.503813 0.0710195 6.58635 0.00874066 11.9251 0.00493891 11.9373 1.64651
8701.00 1324.97 1.115062 3.080498 -13577.984093 0.402044 1.728296 1.749 49.9652 0.764721 16.5982 0.510814 0.0697565 6.57402 0.00858414 11.9059 0.00484726 12.0362 1.56173
8601.00 1324.19 1.118600 3.087841 -13629.219915 0.403384 1.733709 1.757 49.9866 0.761247 16.5933 0.517752 0.0685433 6.5608 0.00842988 11.8858 0.00475694 12.1343 1.47847
8501.00 1323.39 1.122315 3.095654 -13682.760748 0.404794 1.739387 1.764 50.0098 0.757478 16.5883 0.524609 0.067381 6.54663 0.00827791 11.8646 0.00466796 12.2315 1.39683
8401.00 1322.57 1.126212 3.103951 -13738.675678 0.406276 1.745337 1.773 50.0348 0.753396 16.5833 0.531371 0.0662707 6.53145 0.00812828 11.8424 0.00458035 12.3276 1.31688
8301.00 1321.73 1.130293 3.112740 -13797.021887 0.407833 1.751564 1.781 50.0617 0.748984 16.5782 0.538022 0.0652137 6.5152 0.00798104 11.8191 0.00449414 12.4224 1.2387
8201.00 1320.87 1.134561 3.122029 -13857.840564 0.409465 1.758070 1.790 50.0908 0.744223 16.5731 0.544544 0.0642113 6.49784 0.00783622 11.7946 0.00440934 12.516 1.1624
8101.00 1320.00 1.139017 3.131818 -13921.152002 0.411173 1.764856 1.799 50.1223 0.739096 16.5679 0.550921 0.0632649 6.47929 0.00769388 11.7691 0.00432599 12.608 1.08805
8001.00 1319.10 1.143657 3.142104 -13986.949798 0.412957 1.771918 1.809 50.1564 0.733584 16.5627 0.557134 0.0623758 6.4595 0.00755407 11.7424 0.00424409 12.6984 1.01575
7901.00 1318.18 1.148479 3.152874 -14055.194008 0.414817 1.779250 1.818 50.1931 0.727671 16.5574 0.563166 0.0615456 6.43842 0.00741683 11.7145 0.0041637 12.787 0.945592
7801.00 1317.23 1.153474 3.164108 -14125.803322 0.416750 1.786838 1.829 50.2328 0.721339 16.552 0.569 0.0607758 6.41598 0.00728223 11.6853 0.00408482 12.8737 0.877665
7701.00 1316.26 1.158630 3.175774 -14198.646072 0.418753 1.794662 1.839 50.2757 0.714572 16.5465 0.574618 0.0600679 6.39214 0.00715031 11.655 0.0040075 12.9582 0.812065
7601.00 1315.27 1.163930 3.187828 -14273.530396 0.420819 1.802697 1.850 50.3219 0.707355 16.5408 0.580002 0.0594238 6.36684 0.00702116 11.6234 0.00393176 13.0404 0.748881
7501.00 1314.25 1.169352 3.200209 -14350.193490 0.422943 1.810907 1.862 50.3716 0.699676 16.535 0.585137 0.0588449 6.34004 0.00689481 11.5906 0.00385764 13.1202 0.688205
7401.00 1313.20 1.174866 3.212841 -14428.290462 0.425113 1.819246 1.874 50.4251 0.691523 16.5288 0.590006 0.058333 6.3117 0.00677136 11.5565 0.00378518 13.1973 0.630121
7301.00 1312.13 1.180436 3.225625 -14507.383240 0.427318 1.827657 1.887 50.4825 0.682888 16.5224 0.594595 0.0578898 6.28178 0.00665085 11.5211 0.00371441 13.2717 0.574711
7201.00 1311.03 1.186017 3.238442 -14586.930275 0.429542 1.836070 1.900 50.5441 0.673766 16.5156 0.598891 0.0575168 6.25027 0.00653337 11.4845 0.00364537 13.3431 0.52205
7101.00 1309.91 1.191556 3.251150 -14666.278092 0.431767 1.844402 1.914 50.61 0.664154 16.5083 0.602884 0.0572158 6.21713 0.00641899 11.4467 0.0035781 13.4114 0.472204
7001.00 1308.76 1.196990 3.263581 -14744.655810 0.433969 1.852555 1.928 50.6803 0.654055 16.5005 0.606565 0.056988 6.18238 0.00630778 11.4076 0.00351264 13.4765 0.425227
6901.00 1307.57 1.202247 3.275544 -14821.174161 0.436123 1.860418 1.943 50.7553 0.643476 16.492 0.609927 0.0568347 6.14602 0.00619982 11.3673 0.00344903 13.5383 0.381163
6801.00 1306.37 1.207247 3.286822 -14894.830412 0.438201 1.867866 1.958 50.8351 0.632429 16.4828 0.612969 0.056757 6.10807 0.00609518 11.3259 0.00338732 13.5966 0.340036
6701.00 1305.13 1.211900 3.297182 -14964.520503 0.440170 1.874760 1.974 50.9196 0.62093 16.4726 0.61569 0.0567554 6.06859 0.00599393 11.2833 0.00332754 13.6513 0.301857
6601.00 1303.88 1.216113 3.306372 -15029.059579 0.441996 1.880957 1.991 51.009 0.609002 16.4615 0.618094 0.0568303 6.02762 0.00589615 11.2397 0.00326973 13.7024 0.266615
6501.00 1302.60 1.219788 3.314133 -15087.211160 0.443644 1.886303 2.008 51.1034 0.596673 16.4491 0.620189 0.0569815 5.98525 0.00580191 11.1951 0.00321393 13.75 0.234276
6401.00 1301.29 1.222826 3.320202 -15137.724266 0.445076 1.890649 2.026 51.2026 0.583976 16.4354 0.621985 0.0572083 5.94157 0.00571127 11.1497 0.00316019 13.7939 0.204786
6301.00 1299.97 1.225133 3.324327 -15179.377343 0.446257 1.893846 2.044 51.3066 0.570949 16.4202 0.623497 0.0575096 5.8967 0.00562429 11.1034 0.00310852 13.8342 0.178069
6201.00 1298.63 1.226619 3.326275 -15211.025693 0.447154 1.895759 2.063 51.4154 0.557635 16.4034 0.624741 0.0578834 5.85077 0.00554102 11.0565 0.00305897 13.8711 0.154023
6101.00 1297.27 1.227207 3.325841 -15231.649243 0.447737 1.896269 2.083 51.5288 0.544079 16.3846 0.625738 0.0583274 5.80392 0.00546151 11.0089 0.00301156 13.9046 0.13253
6001.00 1295.91 1.226832 3.322856 -15240.396310 0.447982 1.895277 2.103 51.6466 0.53033 16.3638 0.626509 0.0588383 5.75631 0.00538579 10.961 0.00296631 13.9348 0.11345
5901.00 1294.53 1.225448 3.317200 -15236.619417 0.447869 1.892713 2.123 51.7687 0.516438 16.3408 0.627077 0.0594125 5.70811 0.00531392 10.9127 0.00292325 13.9619 0.0966303
