Title: Depleted MORB Mantle of Workmann & Hart 2005

Phase Masses:
Pressure Temperature mass liquid_0 olivine_0 garnet_0 orthopyroxene_0 clinopyroxene_0 feldspar_0 spinel_0 
44001.00 1429.38 100.138999 0.000000 59.090145 12.898259 13.682292 13.395443 0.000000 1.072860 
43901.00 1429.16 100.138999 0.000000 59.089151 12.886879 13.690367 13.398699 0.000000 1.073903 
43801.00 1428.95 100.138999 0.000000 59.088149 12.875417 13.698491 13.401987 0.000000 1.074955 
43701.00 1428.73 100.138999 0.000000 59.087138 12.863873 13.706664 13.405308 0.000000 1.076016 
43601.00 1428.51 100.138999 0.000000 59.086117 12.852246 13.714886 13.408662 0.000000 1.077087 
43501.00 1428.30 100.138999 0.000000 59.085088 12.840535 13.723159 13.412049 0.000000 1.078168 
43401.00 1428.08 100.138999 0.000000 59.084050 12.828740 13.731482 13.415470 0.000000 1.079258 
43301.00 1427.87 100.138999 0.000000 59.083002 12.816858 13.739857 13.418924 0.000000 1.080358 
43201.00 1427.65 100.138999 0.000000 59.081944 12.804890 13.748283 13.422413 0.000000 1.081468 
43101.00 1427.43 100.138999 0.000000 59.080877 12.792834 13.756762 13.425937 0.000000 1.082589 
43001.00 1427.22 100.138999 0.000000 59.079801 12.780690 13.765293 13.429496 0.000000 1.083719 
42901.00 1427.00 100.138999 0.000000 59.078714 12.768457 13.773878 13.433090 0.000000 1.084860 
42801.00 1426.78 100.138999 0.000000 59.077617 12.756134 13.782516 13.436719 0.000000 1.086012 
42701.00 1426.57 100.138999 0.000000 59.076511 12.743720 13.791209 13.440385 0.000000 1.087175 
42601.00 1426.35 100.138999 0.000000 59.075393 12.731213 13.799957 13.444087 0.000000 1.088348 
42501.00 1426.13 100.138999 0.000000 59.074266 12.718614 13.808761 13.447826 0.000000 1.089533 
42401.00 1425.92 100.138999 0.000000 59.073127 12.705921 13.817621 13.451602 0.000000 1.090729 
42301.00 1425.70 100.138999 0.000000 59.071978 12.693132 13.826537 13.455415 0.000000 1.091936 
42201.00 1425.48 100.138999 0.000000 59.070818 12.680248 13.835511 13.459267 0.000000 1.093155 
42101.00 1425.27 100.138999 0.000000 59.069647 12.667267 13.844543 13.463156 0.000000 1.094386 
42001.00 1425.05 100.138999 0.000000 59.068464 12.654188 13.853633 13.467085 0.000000 1.095628 
41901.00 1424.83 100.138999 0.000000 59.067270 12.641010 13.862783 13.471052 0.000000 1.096883 
41801.00 1424.62 100.138999 0.000000 59.066064 12.627732 13.871993 13.475059 0.000000 1.098150 
41701.00 1424.40 100.138999 0.000000 59.064847 12.614353 13.881263 13.479106 0.000000 1.099430 
41601.00 1424.18 100.138999 0.000000 59.063617 12.600871 13.890594 13.483194 0.000000 1.100722 
41501.00 1423.97 100.138999 0.000000 59.062376 12.587287 13.899987 13.487322 0.000000 1.102028 
41401.00 1423.75 100.138999 0.000000 59.061122 12.573597 13.909443 13.491491 0.000000 1.103346 
41301.00 1423.53 100.138999 0.000000 59.059855 12.559803 13.918962 13.495702 0.000000 1.104678 
41201.00 1423.31 100.138999 0.000000 59.058575 12.545901 13.928545 13.499955 0.000000 1.106023 
41101.00 1423.10 100.138999 0.000000 59.057283 12.531892 13.938193 13.504250 0.000000 1.107382 
41001.00 1422.88 100.138999 0.000000 59.055977 12.517773 13.947906 13.508589 0.000000 1.108754 
40901.00 1422.66 100.138999 0.000000 59.054658 12.503544 13.957685 13.512971 0.000000 1.110141 
40801.00 1422.44 100.138999 0.000000 59.053325 12.489204 13.967531 13.517396 0.000000 1.111543 
40701.00 1422.23 100.138999 0.000000 59.051979 12.474751 13.977445 13.521866 0.000000 1.112959 
40601.00 1422.01 100.138999 0.000000 59.050618 12.460183 13.987427 13.526381 0.000000 1.114389 
40501.00 1421.79 100.138999 0.000000 59.049244 12.445501 13.997478 13.530941 0.000000 1.115835 
40401.00 1421.57 100.138999 0.000000 59.047854 12.430701 14.007600 13.535547 0.000000 1.117296 
40301.00 1421.36 100.138999 0.000000 59.046450 12.415784 14.017792 13.540200 0.000000 1.118773 
40201.00 1421.14 100.138999 0.000000 59.045031 12.400747 14.028057 13.544899 0.000000 1.120265 
40101.00 1420.92 100.138999 0.000000 59.043597 12.385590 14.038393 13.549645 0.000000 1.121774 
40001.00 1420.70 100.138999 0.000000 59.042148 12.370310 14.048803 13.554439 0.000000 1.123298 
39901.00 1420.48 100.138999 0.000000 59.040682 12.354907 14.059288 13.559282 0.000000 1.124840 
39801.00 1420.27 100.138999 0.000000 59.039201 12.339379 14.069847 13.564173 0.000000 1.126398 
39701.00 1420.05 100.138999 0.000000 59.037703 12.323725 14.080483 13.569114 0.000000 1.127973 
39601.00 1419.83 100.138999 0.000000 59.036189 12.307943 14.091196 13.574105 0.000000 1.129566 
39501.00 1419.61 100.138999 0.000000 59.034658 12.292031 14.101987 13.579146 0.000000 1.131176 
39401.00 1419.39 100.138999 0.000000 59.033110 12.275988 14.112856 13.584239 0.000000 1.132805 
39301.00 1419.17 100.138999 0.000000 59.031545 12.259813 14.123806 13.589383 0.000000 1.134452 
39201.00 1418.96 100.138999 0.000000 59.029962 12.243504 14.134836 13.594580 0.000000 1.136117 
39101.00 1418.74 100.138999 0.000000 59.028362 12.227059 14.145949 13.599829 0.000000 1.137801 
39001.00 1418.52 100.138999 0.000000 59.026742 12.210477 14.157144 13.605132 0.000000 1.139504 
38901.00 1418.30 100.138999 0.000000 59.025105 12.193755 14.168423 13.610488 0.000000 1.141227 
38801.00 1418.08 100.138999 0.000000 59.023448 12.176893 14.179788 13.615900 0.000000 1.142970 
38701.00 1417.86 100.138999 0.000000 59.021773 12.159888 14.191238 13.621366 0.000000 1.144733 
38601.00 1417.64 100.138999 0.000000 59.020077 12.142739 14.202776 13.626889 0.000000 1.146517 
38501.00 1417.42 100.138999 0.000000 59.018362 12.125445 14.214402 13.632468 0.000000 1.148322 
38401.00 1417.21 100.138999 0.000000 59.016627 12.108002 14.226118 13.638105 0.000000 1.150147 
38301.00 1416.99 100.138999 0.000000 59.014871 12.090410 14.237924 13.643799 0.000000 1.151995 
38201.00 1416.77 100.138999 0.000000 59.013095 12.072666 14.249822 13.649552 0.000000 1.153864 
38101.00 1416.55 100.138999 0.000000 59.011297 12.054768 14.261813 13.655365 0.000000 1.155756 
38001.00 1416.33 100.138999 0.000000 59.009477 12.036716 14.273899 13.661237 0.000000 1.157671 
37901.00 1416.11 100.138999 0.000000 59.007635 12.018505 14.286080 13.667170 0.000000 1.159609 
37801.00 1415.89 100.138999 0.000000 59.005771 12.000136 14.298358 13.673164 0.000000 1.161570 
37701.00 1415.67 100.138999 0.000000 59.003884 11.981605 14.310734 13.679220 0.000000 1.163556 
37601.00 1415.45 100.138999 0.000000 59.001974 11.962910 14.323210 13.685340 0.000000 1.165566 
37501.00 1415.23 100.138999 0.000000 59.000040 11.944050 14.335786 13.691523 0.000000 1.167600 
37401.00 1415.01 100.138999 0.000000 58.998082 11.925022 14.348465 13.697770 0.000000 1.169661 
37301.00 1414.79 100.138999 0.000000 58.996100 11.905823 14.361247 13.704082 0.000000 1.171747 
37201.00 1414.57 100.138999 0.000000 58.994092 11.886453 14.374134 13.710461 0.000000 1.173859 
37101.00 1414.35 100.138999 0.000000 58.992060 11.866907 14.387128 13.716906 0.000000 1.175998 
37001.00 1414.13 100.138999 0.000000 58.990001 11.847185 14.400230 13.723419 0.000000 1.178164 
36901.00 1413.91 100.138999 0.000000 58.987916 11.827284 14.413441 13.730000 0.000000 1.180358 
36801.00 1413.69 100.138999 0.000000 58.985804 11.807200 14.426764 13.736651 0.000000 1.182580 
36701.00 1413.47 100.138999 0.000000 58.983665 11.786933 14.440199 13.743372 0.000000 1.184831 
36601.00 1413.24 100.138999 0.000000 58.981498 11.766479 14.453749 13.750163 0.000000 1.187111 
36501.00 1413.02 100.138999 0.000000 58.979302 11.745835 14.467414 13.757027 0.000000 1.189421 
36401.00 1412.80 100.138999 0.000000 58.977078 11.725000 14.481197 13.763963 0.000000 1.191761 
36301.00 1412.58 100.138999 0.000000 58.974824 11.703970 14.495099 13.770974 0.000000 1.194132 
36201.00 1412.36 100.138999 0.000000 58.972540 11.682743 14.509123 13.778059 0.000000 1.196535 
36101.00 1412.14 100.138999 0.000000 58.970226 11.661316 14.523269 13.785219 0.000000 1.198970 
36001.00 1411.92 100.138999 0.000000 58.967880 11.639686 14.537540 13.792456 0.000000 1.201437 
35901.00 1411.70 100.138999 0.000000 58.965503 11.617850 14.551937 13.799771 0.000000 1.203938 
35801.00 1411.47 100.138999 0.000000 58.963094 11.595806 14.566463 13.807164 0.000000 1.206473 
35701.00 1411.25 100.138999 0.000000 58.960651 11.573550 14.581119 13.814637 0.000000 1.209042 
35601.00 1411.03 100.138999 0.000000 58.958175 11.551079 14.595908 13.822191 0.000000 1.211647 
35501.00 1410.81 100.138999 0.000000 58.955664 11.528390 14.610830 13.829826 0.000000 1.214288 
35401.00 1410.58 100.138999 0.000000 58.953119 11.505481 14.625890 13.837544 0.000000 1.216965 
35301.00 1410.36 100.138999 0.000000 58.950538 11.482348 14.641087 13.845346 0.000000 1.219680 
35201.00 1410.14 100.138999 0.000000 58.947921 11.458987 14.656426 13.853233 0.000000 1.222433 
35101.00 1409.92 100.138999 0.000000 58.945267 11.435395 14.671907 13.861207 0.000000 1.225224 
35001.00 1409.69 100.138999 0.000000 58.942575 11.411569 14.687533 13.869267 0.000000 1.228056 
34901.00 1409.47 100.138999 0.000000 58.939844 11.387505 14.703307 13.877416 0.000000 1.230927 
34801.00 1409.25 100.138999 0.000000 58.937074 11.363200 14.719230 13.885655 0.000000 1.233840 
34701.00 1409.02 100.138999 0.000000 58.934265 11.338650 14.735305 13.893985 0.000000 1.236795 
34601.00 1408.80 100.138999 0.000000 58.931414 11.313851 14.751535 13.902407 0.000000 1.239792 
34501.00 1408.58 100.138999 0.000000 58.928522 11.288799 14.767922 13.910922 0.000000 1.242834 
34401.00 1408.35 100.138999 0.000000 58.925587 11.263492 14.784468 13.919532 0.000000 1.245920 
34301.00 1408.13 100.138999 0.000000 58.922609 11.237924 14.801177 13.928239 0.000000 1.249051 
34201.00 1407.91 100.138999 0.000000 58.919586 11.212092 14.818050 13.937042 0.000000 1.252229 
34101.00 1407.68 100.138999 0.000000 58.916519 11.185991 14.835091 13.945945 0.000000 1.255454 
34001.00 1407.46 100.138999 0.000000 58.913405 11.159617 14.852302 13.954948 0.000000 1.258727 
33901.00 1407.23 100.138999 0.000000 58.910245 11.132967 14.869686 13.964052 0.000000 1.262050 
33801.00 1407.01 100.138999 0.000000 58.907036 11.106035 14.887246 13.973260 0.000000 1.265423 
33701.00 1406.78 100.138999 0.000000 58.903779 11.078817 14.904985 13.982572 0.000000 1.268847 
33601.00 1406.56 100.138999 0.000000 58.900471 11.051309 14.922905 13.991990 0.000000 1.272323 
33501.00 1406.33 100.138999 0.000000 58.897113 11.023506 14.941011 14.001516 0.000000 1.275853 
33401.00 1406.11 100.138999 0.000000 58.893702 10.995403 14.959305 14.011151 0.000000 1.279438 
33301.00 1405.88 100.138999 0.000000 58.890238 10.966995 14.977791 14.020897 0.000000 1.283078 
33201.00 1405.66 100.138999 0.000000 58.886720 10.938277 14.996471 14.030756 0.000000 1.286776 
33101.00 1405.43 100.138999 0.000000 58.883146 10.909244 15.015350 14.040728 0.000000 1.290531 
33001.00 1405.20 100.138999 0.000000 58.879516 10.879891 15.034430 14.050817 0.000000 1.294345 
32901.00 1404.98 100.138999 0.000000 58.875828 10.850213 15.053715 14.061023 0.000000 1.298220 
32801.00 1404.75 100.138999 0.000000 58.872081 10.820203 15.073209 14.071349 0.000000 1.302157 
32701.00 1404.52 100.138999 0.000000 58.868273 10.789857 15.092915 14.081796 0.000000 1.306158 
32601.00 1404.30 100.138999 0.000000 58.864404 10.759169 15.112837 14.092366 0.000000 1.310222 
32501.00 1404.07 100.138999 0.000000 58.860472 10.728133 15.132980 14.103061 0.000000 1.314353 
32401.00 1403.84 100.138999 0.000000 58.856476 10.696743 15.153347 14.113883 0.000000 1.318551 
32301.00 1403.62 100.138999 0.000000 58.852414 10.664992 15.173941 14.124834 0.000000 1.322817 
32201.00 1403.39 100.138999 0.000000 58.848284 10.632876 15.194768 14.135916 0.000000 1.327154 
32101.00 1403.16 100.138999 0.000000 58.844087 10.600386 15.215832 14.147132 0.000000 1.331563 
32001.00 1402.93 100.138999 0.000000 58.839819 10.567517 15.237137 14.158482 0.000000 1.336045 
31901.00 1402.70 100.138999 0.000000 58.835479 10.534263 15.258686 14.169969 0.000000 1.340602 
31801.00 1402.47 100.138999 0.000000 58.831066 10.500615 15.280486 14.181597 0.000000 1.345235 
31701.00 1402.25 100.138999 0.000000 58.826578 10.466568 15.302540 14.193365 0.000000 1.349947 
31601.00 1402.02 100.138999 0.000000 58.822014 10.432114 15.324854 14.205279 0.000000 1.354739 
31501.00 1401.79 100.138999 0.000000 58.817371 10.397245 15.347432 14.217338 0.000000 1.359613 
31401.00 1401.56 100.138999 0.000000 58.812649 10.361955 15.370279 14.229547 0.000000 1.364570 
31301.00 1401.33 100.138999 0.000000 58.807844 10.326235 15.393401 14.241906 0.000000 1.369613 
31201.00 1401.10 100.138999 0.000000 58.802956 10.290077 15.416802 14.254420 0.000000 1.374744 
31101.00 1400.87 100.138999 0.000000 58.797983 10.253475 15.440488 14.267090 0.000000 1.379964 
31001.00 1400.64 100.138999 0.000000 58.792922 10.216418 15.464465 14.279920 0.000000 1.385275 
30901.00 1400.40 100.138999 0.000000 58.787771 10.178900 15.488738 14.292911 0.000000 1.390679 
30801.00 1400.17 100.138999 0.000000 58.782529 10.140911 15.513313 14.306067 0.000000 1.396180 
30701.00 1399.94 100.138999 0.000000 58.777193 10.102442 15.538196 14.319390 0.000000 1.401778 
30601.00 1399.71 100.138999 0.000000 58.771762 10.063485 15.563393 14.332884 0.000000 1.407476 
30501.00 1399.48 100.138999 0.000000 58.766233 10.024029 15.588910 14.346551 0.000000 1.413277 
30401.00 1399.25 100.138999 0.000000 58.760603 9.984066 15.614754 14.360394 0.000000 1.419182 
30301.00 1399.01 100.138999 0.000000 58.754871 9.943586 15.640931 14.374417 0.000000 1.425194 
30201.00 1398.78 100.138999 0.000000 58.749034 9.902578 15.667448 14.388623 0.000000 1.431316 
30101.00 1398.55 100.138999 0.000000 58.743089 9.861033 15.694312 14.403015 0.000000 1.437551 
30001.00 1398.31 100.138999 0.000000 58.737035 9.818939 15.721530 14.417596 0.000000 1.443900 
29901.00 1398.08 100.138999 0.000000 58.730867 9.776287 15.749109 14.432370 0.000000 1.450366 
29801.00 1397.85 100.138999 0.000000 58.724585 9.733064 15.777057 14.447340 0.000000 1.456953 
29701.00 1397.61 100.138999 0.000000 58.718185 9.689260 15.805381 14.462510 0.000000 1.463663 
29601.00 1397.38 100.138999 0.000000 58.711664 9.644864 15.834088 14.477884 0.000000 1.470499 
29501.00 1397.14 100.138999 0.000000 58.705020 9.599862 15.863188 14.493466 0.000000 1.477464 
29401.00 1396.91 100.138999 0.000000 58.698248 9.554243 15.892688 14.509258 0.000000 1.484561 
29301.00 1396.67 100.138999 0.000000 58.691348 9.507994 15.922597 14.525267 0.000000 1.491793 
29201.00 1396.43 100.138999 0.000000 58.684314 9.461103 15.952924 14.541494 0.000000 1.499164 
29101.00 1396.20 100.138999 0.000000 58.677145 9.413556 15.983676 14.557946 0.000000 1.506677 
29001.00 1395.96 100.138999 0.000000 58.669836 9.365339 16.014864 14.574625 0.000000 1.514335 
28901.00 1395.72 100.138999 0.000000 58.662384 9.316438 16.046497 14.591537 0.000000 1.522142 
28801.00 1395.48 100.138999 0.000000 58.654787 9.266840 16.078585 14.608686 0.000000 1.530102 
28701.00 1395.25 100.138999 0.000000 58.647039 9.216529 16.111137 14.626077 0.000000 1.538218 
28601.00 1395.01 100.138999 0.000000 58.639138 9.165490 16.144163 14.643714 0.000000 1.546494 
28501.00 1394.77 100.138999 0.000000 58.631080 9.113708 16.177674 14.661603 0.000000 1.554934 
28401.00 1394.53 100.138999 0.000000 58.622860 9.061167 16.211682 14.679749 0.000000 1.563542 
28301.00 1394.29 100.138999 0.000000 58.614475 9.007850 16.246196 14.698156 0.000000 1.572322 
28201.00 1394.05 100.138999 0.000000 58.605921 8.953741 16.281228 14.716830 0.000000 1.581279 
28101.00 1393.81 100.138999 0.000000 58.597193 8.898821 16.316790 14.735777 0.000000 1.590418 
28001.00 1393.57 100.138999 0.000000 58.588286 8.843074 16.352894 14.755003 0.000000 1.599742 
27901.00 1393.33 100.138999 0.000000 58.579197 8.786480 16.389552 14.774513 0.000000 1.609256 
27801.00 1393.08 100.138999 0.000000 58.569921 8.729022 16.426777 14.794313 0.000000 1.618966 
27701.00 1392.84 100.138999 0.000000 58.560453 8.670679 16.464582 14.814410 0.000000 1.628876 
27601.00 1392.60 100.138999 0.000000 58.550787 8.611431 16.502980 14.834809 0.000000 1.638991 
27501.00 1392.35 100.138999 0.000000 58.540920 8.551258 16.541986 14.855518 0.000000 1.649317 
27401.00 1392.11 100.138999 0.000000 58.530844 8.490139 16.581613 14.876543 0.000000 1.659860 
27301.00 1391.87 100.138999 0.000000 58.520556 8.428051 16.621877 14.897891 0.000000 1.670624 
27201.00 1391.62 100.138999 0.000000 58.510049 8.364973 16.662791 14.919570 0.000000 1.681616 
27101.00 1391.37 100.138999 0.000000 58.499318 8.300881 16.704373 14.941586 0.000000 1.692841 
27001.00 1391.13 100.138999 0.000000 58.488357 8.235751 16.746637 14.963947 0.000000 1.704307 
26901.00 1390.88 100.138999 0.000000 58.477159 8.169558 16.789601 14.986662 0.000000 1.716019 
26801.00 1390.63 100.138999 0.000000 58.465718 8.102277 16.833282 15.009738 0.000000 1.727984 
26701.00 1390.39 100.138999 0.000000 58.454028 8.033883 16.877697 15.033184 0.000000 1.740208 
26601.00 1390.14 100.138999 0.000000 58.442081 7.964347 16.922864 15.057008 0.000000 1.752700 
26501.00 1389.89 100.138999 0.000000 58.429872 7.893641 16.968802 15.081219 0.000000 1.765465 
26401.00 1389.64 100.138999 0.000000 58.417391 7.821738 17.015531 15.105827 0.000000 1.778512 
26301.00 1389.39 100.138999 0.000000 58.404633 7.748607 17.063070 15.130841 0.000000 1.791849 
26201.00 1389.14 100.138999 0.000000 58.391589 7.674217 17.111440 15.156271 0.000000 1.805483 
26101.00 1388.88 100.138999 0.000000 58.378251 7.598537 17.160662 15.182127 0.000000 1.819423 
26001.00 1388.63 100.138999 0.000000 58.364611 7.521533 17.210759 15.208419 0.000000 1.833677 
25901.00 1388.38 100.138999 0.000000 58.350661 7.443173 17.261753 15.235159 0.000000 1.848254 
25801.00 1388.12 100.138999 0.000000 58.336390 7.363420 17.313667 15.262358 0.000000 1.863164 
25701.00 1387.87 100.138999 0.000000 58.321791 7.282238 17.366526 15.290027 0.000000 1.878416 
25601.00 1387.61 100.138999 0.000000 58.306854 7.199590 17.420356 15.318178 0.000000 1.894021 
25501.00 1387.36 100.138999 0.000000 58.291568 7.115437 17.475182 15.346825 0.000000 1.909987 
25401.00 1387.10 100.138999 0.000000 58.275924 7.029738 17.531030 15.375980 0.000000 1.926327 
25301.00 1386.84 100.138999 0.000000 58.259911 6.942452 17.587931 15.405656 0.000000 1.943050 
25201.00 1386.58 100.138999 0.000000 58.243518 6.853535 17.645911 15.435867 0.000000 1.960169 
25101.00 1386.33 100.138999 0.000000 58.226732 6.762942 17.705001 15.466628 0.000000 1.977695 
25001.00 1386.06 100.138999 0.000000 58.209544 6.670627 17.765232 15.497954 0.000000 1.995641 
24901.00 1385.80 100.138999 0.000000 58.191939 6.576542 17.826637 15.529861 0.000000 2.014019 
24801.00 1385.54 100.138999 0.000000 58.173906 6.480636 17.889249 15.562364 0.000000 2.032844 
24701.00 1385.28 100.138999 0.000000 58.155431 6.382858 17.953102 15.595481 0.000000 2.052127 
24601.00 1385.01 100.138999 0.000000 58.136499 6.283153 18.018233 15.629229 0.000000 2.071885 
24501.00 1384.75 100.138999 0.000000 58.117098 6.181465 18.084679 15.663625 0.000000 2.092131 
24401.00 1384.48 100.138999 0.000000 58.097211 6.077736 18.152480 15.698690 0.000000 2.112882 
24301.00 1384.22 100.138999 0.000000 58.076823 5.971905 18.221674 15.734443 0.000000 2.134154 
24201.00 1383.95 100.138999 0.000000 58.055918 5.863909 18.292305 15.770904 0.000000 2.155963 
24101.00 1383.68 100.138999 0.000000 58.034478 5.753683 18.364416 15.808094 0.000000 2.178327 
24001.00 1383.41 100.138999 0.000000 58.012487 5.641157 18.438053 15.846037 0.000000 2.201265 
23901.00 1383.14 100.138999 0.000000 57.989926 5.526261 18.513263 15.884754 0.000000 2.224795 
23801.00 1382.86 100.138999 0.000000 57.966775 5.408921 18.590095 15.924271 0.000000 2.248937 
23701.00 1382.59 100.138999 0.000000 57.943016 5.289060 18.668600 15.964612 0.000000 2.273712 
23601.00 1382.31 100.138999 0.000000 57.918625 5.166596 18.748832 16.005804 0.000000 2.299142 
