Title: Depleted MORB Mantle of Workmann & Hart 2005

liquid_0 thermodynamic data and composition:
Pressure Temperature mass S H V Cp viscosity SiO2 TiO2 Al2O3 Fe2O3 Cr2O3 FeO MnO MgO NiO CaO Na2O
20201.00 1408.20 0.001445 0.004235 -16.162315 0.000502 0.002246 0.720 45.1946 0.882588 14.7709 0.183804 0.26945 8.99947 0.0375035 14.9077 0.0225762 5.61458 9.1168
20101.00 1407.85 0.034140 0.100036 -382.175605 0.011863 0.053075 0.727 45.2353 0.881958 14.7915 0.185421 0.267136 8.98105 0.0371651 14.8932 0.0223659 5.65641 9.04862
20001.00 1407.49 0.067308 0.197156 -754.020991 0.023395 0.104645 0.733 45.2759 0.881328 14.8118 0.187064 0.264821 8.96271 0.0368279 14.8787 0.0221563 5.69864 8.9801
19901.00 1407.13 0.100961 0.295634 -1131.862641 0.035103 0.156977 0.740 45.3164 0.880698 14.832 0.188734 0.262504 8.94445 0.0364918 14.8642 0.0219475 5.74128 8.91123
19801.00 1406.77 0.135113 0.395508 -1515.870313 0.046992 0.210094 0.747 45.357 0.880068 14.852 0.190431 0.260188 8.92627 0.0361568 14.8499 0.0217394 5.78433 8.84203
19701.00 1406.41 0.169781 0.496819 -1906.219547 0.059067 0.264018 0.753 45.3974 0.879437 14.8718 0.192155 0.257871 8.90818 0.035823 14.8355 0.0215322 5.82779 8.77249
19601.00 1406.05 0.204977 0.599608 -2303.091890 0.071334 0.318773 0.760 45.4378 0.878806 14.8914 0.193907 0.255554 8.89017 0.0354904 14.8212 0.0213257 5.87168 8.70261
19501.00 1405.69 0.240718 0.703918 -2706.675114 0.083797 0.374382 0.767 45.4782 0.878174 14.9108 0.195687 0.253238 8.87224 0.0351589 14.807 0.0211201 5.91598 8.63242
19401.00 1405.32 0.277021 0.809795 -3117.163442 0.096464 0.430872 0.773 45.5185 0.877541 14.9301 0.197496 0.250923 8.85439 0.0348287 14.7928 0.0209153 5.96071 8.5619
19301.00 1404.95 0.313900 0.917284 -3534.757788 0.109339 0.488267 0.780 45.5587 0.876906 14.9491 0.199335 0.24861 8.83662 0.0344996 14.7786 0.0207113 6.00587 8.49106
19201.00 1404.58 0.351375 1.026433 -3959.666003 0.122428 0.546594 0.786 45.5988 0.876269 14.968 0.201203 0.246298 8.81892 0.0341718 14.7644 0.0205081 6.05145 8.41991
19101.00 1404.21 0.389463 1.137291 -4392.103119 0.135739 0.605882 0.793 45.6389 0.87563 14.9867 0.203101 0.243989 8.8013 0.0338452 14.7503 0.0203057 6.09747 8.34845
19001.00 1403.84 0.428181 1.249908 -4832.291621 0.149277 0.666159 0.800 45.6789 0.874989 15.0052 0.205031 0.241682 8.78376 0.0335199 14.7363 0.0201042 6.14392 8.27669
18901.00 1403.46 0.467550 1.364339 -5280.461703 0.163050 0.727455 0.807 45.7188 0.874345 15.0235 0.206991 0.239378 8.76628 0.0331958 14.7222 0.0199035 6.19081 8.20464
18801.00 1403.08 0.507589 1.480636 -5736.851554 0.177064 0.789800 0.813 45.7586 0.873697 15.0416 0.208983 0.237077 8.74888 0.0328729 14.7082 0.0197037 6.23813 8.13229
18701.00 1402.70 0.548317 1.598857 -6201.707636 0.191327 0.853226 0.820 45.7983 0.873046 15.0595 0.211007 0.234781 8.73155 0.0325513 14.6942 0.0195047 6.28589 8.05966
18601.00 1402.32 0.589757 1.719060 -6675.284981 0.205846 0.917766 0.827 45.8379 0.87239 15.0772 0.213064 0.232489 8.71429 0.0322311 14.6802 0.0193066 6.3341 7.98676
18501.00 1401.93 0.631931 1.841304 -7157.847485 0.220629 0.983454 0.833 45.8775 0.87173 15.0947 0.215153 0.230202 8.69709 0.0319121 14.6662 0.0191093 6.38275 7.91358
18401.00 1401.55 0.674859 1.965652 -7649.668225 0.235683 1.050324 0.840 45.9169 0.871064 15.1121 0.217276 0.22792 8.67995 0.0315944 14.6523 0.0189129 6.43184 7.84013
18301.00 1401.16 0.718567 2.092168 -8151.029766 0.251019 1.118415 0.847 45.9563 0.870392 15.1292 0.219433 0.225643 8.66287 0.031278 14.6383 0.0187174 6.48138 7.76643
18201.00 1400.77 0.763078 2.220920 -8662.224489 0.266643 1.187762 0.854 45.9956 0.869714 15.1462 0.221624 0.223373 8.64585 0.030963 14.6244 0.0185228 6.53137 7.69249
18101.00 1400.37 0.808417 2.351975 -9183.554922 0.282564 1.258404 0.860 46.0347 0.869028 15.1629 0.22385 0.22111 8.62889 0.0306493 14.6104 0.0183291 6.5818 7.6183
18001.00 1399.97 0.854610 2.485404 -9715.334077 0.298793 1.330383 0.867 46.0738 0.868335 15.1795 0.226111 0.218853 8.61198 0.030337 14.5965 0.0181363 6.63269 7.54387
17901.00 1399.58 0.901683 2.621282 -10257.885789 0.315338 1.403739 0.874 46.1127 0.867634 15.1958 0.228408 0.216604 8.59511 0.030026 14.5825 0.0179444 6.68402 7.46923
17801.00 1399.17 0.949665 2.759684 -10811.545076 0.332210 1.478515 0.881 46.1515 0.866923 15.212 0.23074 0.214363 8.57829 0.0297164 14.5685 0.0177533 6.7358 7.39437
17701.00 1398.77 0.998583 2.900688 -11376.658484 0.349418 1.554756 0.888 46.1903 0.866202 15.2279 0.233109 0.212131 8.56152 0.0294082 14.5545 0.0175632 6.78803 7.3193
17601.00 1398.36 1.048467 3.044376 -11953.584455 0.366973 1.632507 0.894 46.2289 0.86547 15.2437 0.235514 0.209908 8.54477 0.0291014 14.5405 0.0173741 6.84071 7.24403
17501.00 1397.95 1.051316 3.051420 -11994.683419 0.368070 1.637026 0.901 46.2673 0.86474 15.2593 0.237961 0.207684 8.52817 0.0287959 14.5265 0.0171858 6.89394 7.1684
17401.00 1397.54 1.051307 3.050153 -12003.179470 0.368165 1.637094 0.908 46.3055 0.864015 15.2746 0.240453 0.205461 8.51172 0.0284918 14.5126 0.0169985 6.94773 7.0924
17301.00 1397.12 1.051304 3.048895 -12011.729853 0.368261 1.637170 0.915 46.3434 0.863292 15.2897 0.242989 0.203237 8.49541 0.0281891 14.4988 0.0168121 7.00208 7.01603
17201.00 1396.71 1.051307 3.047644 -12020.337122 0.368359 1.637255 0.921 46.3811 0.862572 15.3046 0.245571 0.201013 8.47925 0.0278877 14.4851 0.0166266 7.05701 6.93929
17101.00 1396.29 1.051317 3.046401 -12029.003938 0.368458 1.637349 0.928 46.4185 0.861856 15.3192 0.248199 0.198791 8.46323 0.0275878 14.4715 0.016442 7.11251 6.86219
17001.00 1395.87 1.051334 3.045168 -12037.733105 0.368558 1.637452 0.935 46.4556 0.861142 15.3337 0.250874 0.196569 8.44736 0.0272893 14.4579 0.0162584 7.16859 6.78474
16901.00 1395.45 1.051357 3.043944 -12046.527560 0.368660 1.637566 0.942 46.4924 0.860431 15.3479 0.253598 0.194349 8.43164 0.0269921 14.4444 0.0160758 7.22526 6.70693
16801.00 1395.03 1.051389 3.042731 -12055.390387 0.368763 1.637690 0.948 46.529 0.859722 15.3618 0.25637 0.19213 8.41607 0.0266964 14.431 0.015894 7.28253 6.62877
16701.00 1394.61 1.051427 3.041530 -12064.324825 0.368868 1.637825 0.955 46.5653 0.859015 15.3756 0.259192 0.189914 8.40064 0.0264021 14.4176 0.0157133 7.34038 6.55027
16601.00 1394.18 1.051474 3.040340 -12073.334272 0.368975 1.637971 0.962 46.6012 0.858309 15.3891 0.262065 0.187701 8.38535 0.0261093 14.4043 0.0155335 7.39884 6.47143
16501.00 1393.76 1.051529 3.039163 -12082.422299 0.369084 1.638129 0.969 46.6369 0.857606 15.4024 0.264989 0.18549 8.37021 0.0258178 14.3911 0.0153546 7.45791 6.39226
16401.00 1393.33 1.051593 3.038000 -12091.592637 0.369195 1.638299 0.975 46.6723 0.856903 15.4154 0.267966 0.183283 8.35521 0.0255279 14.3779 0.0151768 7.51758 6.31277
16301.00 1392.90 1.051666 3.036852 -12100.849237 0.369308 1.638482 0.982 46.7073 0.856201 15.4282 0.270996 0.18108 8.34036 0.0252394 14.3647 0.0149999 7.57787 6.23295
16201.00 1392.46 1.051748 3.035719 -12110.196211 0.369423 1.638679 0.989 46.7421 0.855499 15.4408 0.27408 0.178881 8.32565 0.0249524 14.3516 0.0148239 7.63878 6.15282
16101.00 1392.03 1.051840 3.034603 -12119.637893 0.369541 1.638890 0.995 46.7765 0.854797 15.4532 0.277219 0.176687 8.31108 0.0246668 14.3386 0.014649 7.7003 6.07238
16001.00 1391.59 1.051942 3.033504 -12129.178828 0.369661 1.639115 1.002 46.8105 0.854094 15.4653 0.280414 0.174498 8.29664 0.0243828 14.3256 0.014475 7.76246 5.99164
15901.00 1391.15 1.052055 3.032424 -12138.823789 0.369783 1.639355 1.009 46.8443 0.85339 15.4772 0.283666 0.172315 8.28234 0.0241002 14.3126 0.0143021 7.82524 5.91061
15801.00 1390.71 1.052178 3.031363 -12148.577785 0.369909 1.639612 1.015 46.8777 0.852684 15.4888 0.286975 0.170137 8.26818 0.0238192 14.2996 0.0141301 7.88865 5.82929
15701.00 1390.27 1.052313 3.030324 -12158.446074 0.370038 1.639885 1.022 46.9108 0.851976 15.5002 0.290343 0.167966 8.25415 0.0235396 14.2867 0.0139591 7.9527 5.7477
15601.00 1389.82 1.052460 3.029306 -12168.434177 0.370170 1.640175 1.028 46.9435 0.851264 15.5114 0.293769 0.165802 8.24025 0.0232616 14.2738 0.0137891 8.01738 5.66583
15501.00 1389.37 1.052620 3.028313 -12178.547890 0.370305 1.640483 1.035 46.9759 0.850548 15.5223 0.297256 0.163645 8.22648 0.0229851 14.2609 0.0136202 8.08271 5.58371
15401.00 1388.92 1.052792 3.027344 -12188.793293 0.370444 1.640810 1.041 47.0079 0.849827 15.533 0.300803 0.161495 8.21283 0.0227102 14.248 0.0134522 8.14867 5.50134
15301.00 1388.46 1.052978 3.026401 -12199.176785 0.370586 1.641156 1.048 47.0396 0.849101 15.5434 0.304412 0.159355 8.1993 0.0224368 14.2351 0.0132853 8.21528 5.41873
15201.00 1388.01 1.053177 3.025486 -12209.705056 0.370733 1.641523 1.054 47.0709 0.848368 15.5537 0.308082 0.157222 8.18589 0.022165 14.2222 0.0131194 8.28253 5.33589
15101.00 1387.55 1.053391 3.024600 -12220.385159 0.370884 1.641911 1.061 47.1019 0.847628 15.5636 0.311815 0.155099 8.17259 0.0218947 14.2093 0.0129545 8.35042 5.25283
15001.00 1387.09 1.053621 3.023745 -12231.224479 0.371039 1.642321 1.067 47.1325 0.846879 15.5734 0.315611 0.152986 8.1594 0.021626 14.1963 0.0127906 8.41896 5.16956
14901.00 1386.62 1.053866 3.022923 -12242.230792 0.371198 1.642754 1.074 47.1627 0.84612 15.5829 0.319471 0.150883 8.14631 0.0213589 14.1833 0.0126278 8.48815 5.0861
14801.00 1386.15 1.054128 3.022135 -12253.412228 0.371363 1.643212 1.080 47.1927 0.84535 15.5922 0.323395 0.14879 8.13333 0.0210934 14.1703 0.012466 8.55798 5.00245
14701.00 1385.68 1.054407 3.021383 -12264.777358 0.371533 1.643694 1.087 47.2222 0.844567 15.6012 0.327384 0.146708 8.12044 0.0208295 14.1572 0.0123052 8.62845 4.91864
14601.00 1385.21 1.054703 3.020669 -12276.335164 0.371708 1.644203 1.093 47.2514 0.843771 15.6101 0.331438 0.144638 8.10763 0.0205673 14.1441 0.0121455 8.69956 4.83466
14501.00 1384.73 1.055019 3.019996 -12288.095078 0.371889 1.644739 1.100 47.2803 0.84296 15.6187 0.335557 0.142581 8.09492 0.0203066 14.1309 0.0119869 8.77131 4.75054
14401.00 1384.25 1.055354 3.019365 -12300.067015 0.372077 1.645304 1.106 47.3088 0.842132 15.627 0.339742 0.140535 8.08227 0.0200476 14.1176 0.0118293 8.8437 4.66629
14301.00 1383.76 1.055709 3.018779 -12312.261367 0.372270 1.645898 1.112 47.337 0.841286 15.6352 0.343992 0.138503 8.0697 0.0197902 14.1042 0.0116728 8.91672 4.58192
14201.00 1383.28 1.056085 3.018240 -12324.689063 0.372470 1.646523 1.119 47.3649 0.840419 15.6431 0.348308 0.136485 8.05719 0.0195345 14.0908 0.0115173 8.99037 4.49746
14101.00 1382.78 1.056483 3.017751 -12337.361569 0.372678 1.647181 1.125 47.3924 0.83953 15.6508 0.35269 0.134481 8.04474 0.0192805 14.0772 0.011363 9.06464 4.41291
14001.00 1382.29 1.056904 3.017313 -12350.290929 0.372893 1.647873 1.132 47.4196 0.838617 15.6583 0.357138 0.132491 8.03233 0.0190281 14.0635 0.0112097 9.13954 4.3283
13901.00 1381.79 1.057350 3.016931 -12363.489787 0.373115 1.648600 1.138 47.4465 0.837678 15.6655 0.36165 0.130517 8.01996 0.0187774 14.0497 0.0110575 9.21504 4.24364
13801.00 1381.29 1.057820 3.016606 -12376.971403 0.373346 1.649364 1.144 47.4731 0.83671 15.6726 0.366228 0.128558 8.00762 0.0185284 14.0357 0.0109063 9.29115 4.15894
13701.00 1380.78 1.058316 3.016341 -12390.749734 0.373586 1.650166 1.151 47.4994 0.835712 15.6794 0.370871 0.126616 7.99529 0.0182812 14.0216 0.0107563 9.36786 4.07424
13601.00 1380.27 1.058840 3.016141 -12404.839391 0.373835 1.651008 1.157 47.5255 0.83468 15.686 0.375577 0.124691 7.98298 0.0180356 14.0072 0.0106074 9.44515 3.98954
13501.00 1379.75 1.059392 3.016007 -12419.255732 0.374093 1.651893 1.163 47.5512 0.833612 15.6925 0.380346 0.122783 7.97066 0.0177918 13.9928 0.0104596 9.52303 3.90487
13401.00 1379.23 1.059974 3.015944 -12434.014870 0.374362 1.652821 1.170 47.5768 0.832505 15.6987 0.385178 0.120893 7.95834 0.0175497 13.9781 0.0103129 9.60147 3.82024
13301.00 1378.70 1.060586 3.015956 -12449.133712 0.374641 1.653795 1.176 47.6021 0.831357 15.7047 0.390071 0.119022 7.94598 0.0173094 13.9632 0.0101673 9.68047 3.73569
13201.00 1378.17 1.061231 3.016045 -12464.629999 0.374932 1.654816 1.182 47.6272 0.830164 15.7105 0.395023 0.11717 7.93359 0.0170709 13.948 0.0100229 9.76001 3.65123
13101.00 1377.64 1.061910 3.016215 -12480.522339 0.375234 1.655888 1.189 47.652 0.828922 15.7162 0.400034 0.115337 7.92115 0.0168341 13.9326 0.00987958 9.84009 3.56688
13001.00 1377.10 1.062624 3.016472 -12496.830246 0.375549 1.657012 1.195 47.6767 0.827629 15.7217 0.405102 0.113525 7.90865 0.0165992 13.917 0.00973742 9.92067 3.48267
12901.00 1376.55 1.063375 3.016819 -12513.574179 0.375876 1.658190 1.202 47.7013 0.826281 15.7269 0.410225 0.111733 7.89606 0.0163661 13.9011 0.0095964 10.0018 3.39862
12801.00 1376.00 1.064164 3.017261 -12530.775584 0.376218 1.659425 1.208 47.7257 0.824874 15.7321 0.415401 0.109963 7.88338 0.0161348 13.8849 0.00945655 10.0833 3.31477
12701.00 1375.44 1.064993 3.017802 -12548.456918 0.376574 1.660719 1.214 47.7501 0.823404 15.737 0.420627 0.108215 7.87059 0.0159053 13.8684 0.00931785 10.1654 3.23112
12601.00 1374.88 1.065864 3.018447 -12566.641725 0.376945 1.662075 1.221 47.7743 0.821866 15.7418 0.425902 0.106489 7.85768 0.0156777 13.8516 0.00918033 10.2478 3.14772
12501.00 1374.31 1.066778 3.019202 -12585.354621 0.377332 1.663497 1.227 47.7985 0.820257 15.7464 0.431222 0.104787 7.84462 0.015452 13.8344 0.00904399 10.3307 3.06459
12401.00 1373.73 1.067739 3.020072 -12604.621373 0.377735 1.664986 1.234 47.8227 0.818571 15.7509 0.436585 0.103108 7.8314 0.0152282 13.8169 0.00890884 10.414 2.98176
12301.00 1373.15 1.068747 3.021063 -12624.468916 0.378156 1.666546 1.240 47.8469 0.816805 15.7552 0.441987 0.101454 7.818 0.0150063 13.799 0.00877489 10.4977 2.89925
12201.00 1372.56 1.069804 3.022180 -12644.925385 0.378596 1.668179 1.247 47.8711 0.814952 15.7594 0.447425 0.0998246 7.8044 0.0147863 13.7807 0.00864215 10.5817 2.8171
12101.00 1371.97 1.070914 3.023429 -12666.020148 0.379054 1.669890 1.254 47.8955 0.813007 15.7634 0.452894 0.0982208 7.79058 0.0145683 13.762 0.00851062 10.666 2.73534
12001.00 1371.36 1.072078 3.024817 -12687.783823 0.379533 1.671682 1.260 47.9199 0.810965 15.7673 0.458392 0.0966433 7.77652 0.0143522 13.7428 0.00838032 10.7507 2.654
11901.00 1370.75 1.073298 3.026350 -12710.248301 0.380033 1.673558 1.267 47.9446 0.80882 15.7711 0.463913 0.0950925 7.76219 0.0141381 13.7232 0.00825125 10.8355 2.57311
11801.00 1370.13 1.074578 3.028036 -12733.446741 0.380556 1.675521 1.274 47.9694 0.806566 15.7748 0.469452 0.0935692 7.74758 0.013926 13.7032 0.00812343 10.9207 2.49272
11701.00 1369.51 1.075919 3.029881 -12757.413580 0.381102 1.677577 1.281 47.9946 0.804197 15.7784 0.475006 0.092074 7.73266 0.013716 13.6826 0.00799686 11.006 2.41284
11601.00 1368.87 1.077324 3.031892 -12782.184510 0.381672 1.679728 1.288 48.02 0.801705 15.7819 0.480567 0.0906074 7.71741 0.013508 13.6616 0.00787157 11.0914 2.33353
11501.00 1368.23 1.078796 3.034078 -12807.796443 0.382267 1.681978 1.295 48.0458 0.799085 15.7852 0.486131 0.0891703 7.70179 0.013302 13.64 0.00774755 11.177 2.25481
11401.00 1367.57 1.080338 3.036445 -12834.287458 0.382889 1.684333 1.302 48.072 0.796329 15.7885 0.491692 0.0877632 7.68579 0.0130982 13.6178 0.00762482 11.2626 2.17673
11301.00 1366.91 1.081952 3.039003 -12861.696730 0.383540 1.686795 1.309 48.0987 0.79343 15.7917 0.497243 0.0863867 7.66938 0.0128964 13.5951 0.00750339 11.3483 2.09932
11201.00 1366.24 1.083641 3.041758 -12890.064409 0.384219 1.689371 1.316 48.1259 0.790379 15.7948 0.502777 0.0850417 7.65253 0.0126968 13.5719 0.00738328 11.4339 2.02262
11101.00 1365.56 1.085409 3.044719 -12919.431481 0.384929 1.692063 1.324 48.1538 0.78717 15.7979 0.508287 0.0837288 7.63521 0.0124994 13.548 0.00726449 11.5195 1.94668
11001.00 1364.86 1.087258 3.047895 -12949.839597 0.385670 1.694876 1.331 48.1823 0.783794 15.8009 0.513766 0.0824486 7.61739 0.0123041 13.5235 0.00714704 11.605 1.87154
10901.00 1364.16 1.089192 3.051294 -12981.330801 0.386444 1.697816 1.339 48.2115 0.780242 15.8038 0.519206 0.081202 7.59904 0.0121111 13.4983 0.00703094 11.6903 1.79724
10801.00 1363.44 1.091213 3.054924 -13013.947255 0.387253 1.700885 1.347 48.2416 0.776507 15.8067 0.524599 0.0799896 7.58013 0.0119203 13.4725 0.00691621 11.7754 1.72383
10701.00 1362.72 1.093324 3.058794 -13047.730855 0.388097 1.704090 1.355 48.2725 0.772578 15.8095 0.529936 0.0788123 7.56063 0.0117317 13.446 0.00680287 11.8602 1.65134
10601.00 1361.98 1.095528 3.062911 -13082.722774 0.388978 1.707433 1.363 48.3045 0.768448 15.8122 0.535208 0.0776707 7.5405 0.0115455 13.4188 0.00669092 11.9446 1.57984
10501.00 1361.22 1.097827 3.067283 -13118.962890 0.389897 1.710920 1.371 48.3374 0.764106 15.8149 0.540407 0.0765658 7.51971 0.0113616 13.3909 0.00658038 12.0286 1.50937
10401.00 1360.46 1.100225 3.071917 -13156.489120 0.390856 1.714553 1.379 48.3716 0.759544 15.8176 0.545522 0.0754984 7.49824 0.01118 13.3622 0.00647127 12.1122 1.43997
10301.00 1359.68 1.102724 3.076820 -13195.336586 0.391855 1.718336 1.388 48.4069 0.754751 15.8202 0.550545 0.0744692 7.47603 0.0110008 13.3328 0.0063636 12.1952 1.3717
10201.00 1358.88 1.105325 3.081997 -13235.536646 0.392895 1.722272 1.397 48.4436 0.749719 15.8228 0.555464 0.0734793 7.45306 0.0108241 13.3026 0.0062574 12.2775 1.30461
10101.00 1358.08 1.108030 3.087452 -13277.115727 0.393977 1.726363 1.406 48.4818 0.744437 15.8253 0.56027 0.0725295 7.4293 0.0106498 13.2716 0.00615268 12.3592 1.23875
10001.00 1357.25 1.110839 3.093189 -13320.093960 0.395103 1.730609 1.415 48.5214 0.738896 15.8278 0.564953 0.0716208 7.4047 0.010478 13.2398 0.00604946 12.4401 1.17419
9901.00 1356.41 1.113754 3.099208 -13364.483573 0.396272 1.735012 1.424 48.5627 0.733086 15.8302 0.569501 0.0707542 7.37923 0.0103087 13.2072 0.00594775 12.5201 1.11096
9801.00 1355.56 1.116774 3.105509 -13410.287008 0.397485 1.739570 1.434 48.6058 0.726999 15.8325 0.573905 0.0699307 7.35285 0.010142 13.1738 0.00584759 12.5991 1.04913
9701.00 1354.69 1.119896 3.112087 -13457.494841 0.398741 1.744281 1.444 48.6507 0.720625 15.8348 0.578153 0.0691513 7.32553 0.00997795 13.1395 0.00574898 12.6771 0.988763
9601.00 1353.80 1.123119 3.118936 -13506.083232 0.400039 1.749139 1.454 48.6975 0.713954 15.837 0.582235 0.0684172 7.29724 0.00981652 13.1043 0.00565196 12.7539 0.929905
9501.00 1352.89 1.126438 3.126044 -13556.011220 0.401380 1.754139 1.465 48.7465 0.70698 15.8391 0.58614 0.0677296 7.26793 0.00965778 13.0682 0.00555654 12.8295 0.872619
9401.00 1351.96 1.129848 3.133397 -13607.217599 0.402761 1.759270 1.476 48.7977 0.699694 15.841 0.589858 0.0670896 7.23758 0.00950178 13.0313 0.00546275 12.9038 0.816961
9301.00 1351.01 1.133340 3.140973 -13659.617506 0.404180 1.764521 1.487 48.8512 0.69209 15.8429 0.59338 0.0664983 7.20616 0.00934857 12.9935 0.00537061 12.9767 0.76299
9201.00 1350.05 1.136904 3.148747 -13713.098724 0.405633 1.769875 1.498 48.9071 0.68416 15.8445 0.596695 0.0659571 7.17363 0.00919819 12.9547 0.00528015 13.0479 0.710763
9101.00 1349.06 1.140529 3.156683 -13767.517755 0.407117 1.775314 1.510 48.9657 0.675902 15.846 0.599794 0.0654672 7.13997 0.00905069 12.9151 0.0051914 13.1176 0.660335
9001.00 1348.06 1.144199 3.164743 -13822.695755 0.408627 1.780811 1.522 49.0269 0.66731 15.8472 0.60267 0.0650299 7.10515 0.00890613 12.8745 0.00510438 13.1855 0.61176
8901.00 1347.03 1.147894 3.172875 -13878.414485 0.410155 1.786339 1.534 49.0909 0.658382 15.8481 0.605315 0.0646464 7.06916 0.00876455 12.833 0.00501912 13.2516 0.565089
8801.00 1345.98 1.151594 3.181021 -13934.412449 0.411696 1.791864 1.547 49.1579 0.649119 15.8487 0.607723 0.064318 7.03199 0.00862601 12.7907 0.00493565 13.3157 0.520372
8701.00 1344.92 1.155273 3.189112 -13990.381411 0.413240 1.797344 1.561 49.2279 0.639521 15.849 0.609888 0.0640458 6.99361 0.00849056 12.7474 0.004854 13.3777 0.477651
8601.00 1343.83 1.158901 3.197068 -14045.963718 0.414776 1.802733 1.574 49.301 0.629593 15.8488 0.611807 0.0638311 6.95403 0.00835827 12.7032 0.0047742 13.4377 0.436965
