Title: Depleted MORB Mantle of Workmann & Hart 2005

Liquid Composition:
Pressure Temperature mass SiO2 TiO2 Al2O3 Fe2O3 Cr2O3 FeO MnO MgO NiO CaO Na2O 
44001.00 1478.07 0.000000 ---
43901.00 1477.85 0.000000 ---
43801.00 1477.62 0.000000 ---
43701.00 1477.39 0.000000 ---
43601.00 1477.16 0.000000 ---
43501.00 1476.94 0.000000 ---
43401.00 1476.71 0.000000 ---
43301.00 1476.48 0.000000 ---
43201.00 1476.26 0.000000 ---
43101.00 1476.03 0.000000 ---
43001.00 1475.80 0.000000 ---
42901.00 1475.57 0.000000 ---
42801.00 1475.35 0.000000 ---
42701.00 1475.12 0.000000 ---
42601.00 1474.89 0.000000 ---
42501.00 1474.66 0.000000 ---
42401.00 1474.44 0.000000 ---
42301.00 1474.21 0.000000 ---
42201.00 1473.98 0.000000 ---
42101.00 1473.75 0.000000 ---
42001.00 1473.53 0.000000 ---
41901.00 1473.30 0.000000 ---
41801.00 1473.07 0.000000 ---
41701.00 1472.84 0.000000 ---
41601.00 1472.61 0.000000 ---
41501.00 1472.39 0.000000 ---
41401.00 1472.16 0.000000 ---
41301.00 1471.93 0.000000 ---
41201.00 1471.70 0.000000 ---
41101.00 1471.47 0.000000 ---
41001.00 1471.24 0.000000 ---
40901.00 1471.02 0.000000 ---
40801.00 1470.79 0.000000 ---
40701.00 1470.56 0.000000 ---
40601.00 1470.33 0.000000 ---
40501.00 1470.10 0.000000 ---
40401.00 1469.87 0.000000 ---
40301.00 1469.64 0.000000 ---
40201.00 1469.41 0.000000 ---
40101.00 1469.18 0.000000 ---
40001.00 1468.96 0.000000 ---
39901.00 1468.73 0.000000 ---
39801.00 1468.50 0.000000 ---
39701.00 1468.27 0.000000 ---
39601.00 1468.04 0.000000 ---
39501.00 1467.81 0.000000 ---
39401.00 1467.58 0.000000 ---
39301.00 1467.35 0.000000 ---
39201.00 1467.12 0.000000 ---
39101.00 1466.89 0.000000 ---
39001.00 1466.66 0.000000 ---
38901.00 1466.43 0.000000 ---
38801.00 1466.20 0.000000 ---
38701.00 1465.97 0.000000 ---
38601.00 1465.74 0.000000 ---
38501.00 1465.51 0.000000 ---
38401.00 1465.27 0.000000 ---
38301.00 1465.04 0.000000 ---
38201.00 1464.81 0.000000 ---
38101.00 1464.58 0.000000 ---
38001.00 1464.35 0.000000 ---
37901.00 1464.12 0.000000 ---
37801.00 1463.89 0.000000 ---
37701.00 1463.66 0.000000 ---
37601.00 1463.42 0.000000 ---
37501.00 1463.19 0.000000 ---
37401.00 1462.96 0.000000 ---
37301.00 1462.73 0.000000 ---
37201.00 1462.50 0.000000 ---
37101.00 1462.26 0.000000 ---
37001.00 1462.03 0.000000 ---
36901.00 1461.80 0.000000 ---
36801.00 1461.57 0.000000 ---
36701.00 1461.33 0.000000 ---
36601.00 1461.10 0.000000 ---
36501.00 1460.87 0.000000 ---
36401.00 1460.63 0.000000 ---
36301.00 1460.40 0.000000 ---
36201.00 1460.17 0.000000 ---
36101.00 1459.93 0.000000 ---
36001.00 1459.70 0.000000 ---
35901.00 1459.47 0.000000 ---
35801.00 1459.23 0.000000 ---
35701.00 1459.00 0.000000 ---
35601.00 1458.76 0.000000 ---
35501.00 1458.53 0.000000 ---
35401.00 1458.29 0.000000 ---
35301.00 1458.06 0.000000 ---
35201.00 1457.82 0.000000 ---
35101.00 1457.59 0.000000 ---
35001.00 1457.35 0.000000 ---
34901.00 1457.12 0.000000 ---
34801.00 1456.88 0.000000 ---
34701.00 1456.64 0.000000 ---
34601.00 1456.41 0.000000 ---
34501.00 1456.17 0.000000 ---
34401.00 1455.93 0.000000 ---
34301.00 1455.70 0.000000 ---
34201.00 1455.46 0.000000 ---
34101.00 1455.22 0.000000 ---
34001.00 1454.99 0.000000 ---
33901.00 1454.75 0.000000 ---
33801.00 1454.51 0.000000 ---
33701.00 1454.27 0.000000 ---
33601.00 1454.03 0.000000 ---
33501.00 1453.80 0.000000 ---
33401.00 1453.56 0.000000 ---
33301.00 1453.32 0.000000 ---
33201.00 1453.08 0.000000 ---
33101.00 1452.84 0.000000 ---
33001.00 1452.60 0.000000 ---
32901.00 1452.36 0.000000 ---
32801.00 1452.12 0.000000 ---
32701.00 1451.88 0.000000 ---
32601.00 1451.64 0.000000 ---
32501.00 1451.40 0.000000 ---
32401.00 1451.16 0.000000 ---
32301.00 1450.92 0.000000 ---
32201.00 1450.67 0.000000 ---
32101.00 1450.43 0.000000 ---
32001.00 1450.19 0.000000 ---
31901.00 1449.95 0.000000 ---
31801.00 1449.70 0.000000 ---
31701.00 1449.46 0.000000 ---
31601.00 1449.22 0.000000 ---
31501.00 1448.97 0.000000 ---
31401.00 1448.73 0.000000 ---
31301.00 1448.48 0.000000 ---
31201.00 1448.24 0.000000 ---
31101.00 1447.99 0.000000 ---
31001.00 1447.75 0.000000 ---
30901.00 1447.50 0.000000 ---
30801.00 1447.26 0.000000 ---
30701.00 1447.01 0.000000 ---
30601.00 1446.76 0.000000 ---
30501.00 1446.52 0.000000 ---
30401.00 1446.27 0.000000 ---
30301.00 1446.02 0.000000 ---
30201.00 1445.77 0.000000 ---
30101.00 1445.52 0.000000 ---
30001.00 1445.27 0.000000 ---
29901.00 1445.03 0.000000 ---
29801.00 1444.78 0.000000 ---
29701.00 1444.52 0.000000 ---
29601.00 1444.27 0.000000 ---
29501.00 1444.02 0.000000 ---
29401.00 1443.77 0.000000 ---
29301.00 1443.52 0.000000 ---
29201.00 1443.27 0.000000 ---
29101.00 1443.01 0.000000 ---
29001.00 1442.76 0.000000 ---
28901.00 1442.51 0.000000 ---
28801.00 1442.25 0.000000 ---
28701.00 1442.00 0.000000 ---
28601.00 1441.74 0.000000 ---
28501.00 1441.48 0.000000 ---
28401.00 1441.23 0.000000 ---
28301.00 1440.97 0.000000 ---
28201.00 1440.71 0.000000 ---
28101.00 1440.45 0.000000 ---
28001.00 1440.19 0.000000 ---
27901.00 1439.93 0.000000 ---
27801.00 1439.67 0.000000 ---
27701.00 1439.41 0.000000 ---
27601.00 1439.15 0.000000 ---
27501.00 1438.89 0.000000 ---
27401.00 1438.63 0.000000 ---
27301.00 1438.36 0.000000 ---
27201.00 1438.10 0.000000 ---
27101.00 1437.83 0.000000 ---
27001.00 1437.57 0.000000 ---
26901.00 1437.30 0.000000 ---
26801.00 1437.03 0.000000 ---
26701.00 1436.77 0.000000 ---
26601.00 1436.50 0.000000 ---
26501.00 1436.23 0.000000 ---
26401.00 1435.96 0.000000 ---
26301.00 1435.68 0.000000 ---
26201.00 1435.41 0.000000 ---
26101.00 1435.14 0.000000 ---
26001.00 1434.86 0.000000 ---
25901.00 1434.59 0.000000 ---
25801.00 1434.31 0.000000 ---
25701.00 1434.04 0.000000 ---
25601.00 1433.76 0.000000 ---
25501.00 1433.48 0.000000 ---
25401.00 1433.20 0.000000 ---
25301.00 1432.92 0.000000 ---
25201.00 1432.63 0.000000 ---
25101.00 1432.35 0.000000 ---
25001.00 1432.06 0.000000 ---
24901.00 1431.78 0.000000 ---
24801.00 1431.49 0.000000 ---
24701.00 1431.20 0.000000 ---
24601.00 1430.91 0.000000 ---
24501.00 1430.62 0.000000 ---
24401.00 1430.33 0.000000 ---
24301.00 1430.03 0.000000 ---
24201.00 1429.74 0.000000 ---
24101.00 1429.44 0.000000 ---
24001.00 1429.14 0.000000 ---
23901.00 1428.84 0.000000 ---
23801.00 1428.54 0.000000 ---
23701.00 1428.23 0.000000 ---
23601.00 1427.93 0.000000 ---
23501.00 1427.62 0.000000 ---
23401.00 1427.31 0.000000 ---
23301.00 1426.99 0.000000 ---
23201.00 1426.68 0.000000 ---
23101.00 1426.36 0.000000 ---
23001.00 1426.05 0.000000 ---
22901.00 1425.72 0.000000 ---
22801.00 1425.40 0.000000 ---
22701.00 1425.08 0.000000 ---
22601.00 1424.75 0.000000 ---
22501.00 1424.42 0.000000 ---
22401.00 1424.08 0.000000 ---
22301.00 1423.74 0.000000 ---
22201.00 1423.40 0.000000 ---
22101.00 1423.06 0.000000 ---
22001.00 1422.72 0.000000 ---
21901.00 1422.37 0.000000 ---
21801.00 1422.01 0.000000 ---
21701.00 1421.66 0.000000 ---
21601.00 1421.43 0.000000 ---
21501.00 1421.21 0.000000 ---
21401.00 1420.99 0.000000 ---
21301.00 1420.77 0.000000 ---
21201.00 1420.55 0.000000 ---
21101.00 1420.33 0.000000 ---
21001.00 1419.99 0.027695 44.5435 0.895078 14.3368 0.198623 0.260263 9.53858 0.0400634 15.6455 0.0242918 5.73015 8.78722
20901.00 1419.63 0.060284 44.5824 0.894522 14.3584 0.200259 0.258219 9.51861 0.0397164 15.6292 0.0240743 5.77055 8.72403
20801.00 1419.27 0.093336 44.6213 0.893961 14.3798 0.201919 0.256172 9.49872 0.0393704 15.6131 0.0238576 5.81131 8.66051
20701.00 1418.91 0.126862 44.6602 0.893397 14.401 0.203605 0.254122 9.47889 0.0390255 15.5969 0.0236416 5.85245 8.59666
20601.00 1418.55 0.160876 44.6992 0.892829 14.4221 0.205315 0.25207 9.45913 0.0386817 15.5808 0.0234264 5.89397 8.5325
20501.00 1418.18 0.195391 44.7381 0.892257 14.443 0.207052 0.250015 9.43944 0.0383389 15.5647 0.0232119 5.93586 8.46802
20401.00 1417.81 0.230423 44.777 0.89168 14.4638 0.208815 0.247959 9.41981 0.0379972 15.5486 0.0229982 5.97814 8.40322
20301.00 1417.45 0.265984 44.8159 0.891098 14.4843 0.210604 0.245901 9.40024 0.0376567 15.5325 0.0227852 6.0208 8.33812
20201.00 1417.08 0.302092 44.8548 0.890512 14.5047 0.21242 0.243842 9.38073 0.0373172 15.5165 0.022573 6.06384 8.27272
20101.00 1416.70 0.338760 44.8937 0.88992 14.525 0.214263 0.241782 9.36128 0.0369788 15.5005 0.0223615 6.10728 8.20701
20001.00 1416.33 0.376005 44.9325 0.889323 14.545 0.216134 0.239721 9.3419 0.0366416 15.4845 0.0221508 6.1511 8.14101
19901.00 1415.96 0.413844 44.9713 0.888719 14.5649 0.218033 0.237661 9.32257 0.0363055 15.4685 0.0219409 6.19531 8.07472
19801.00 1415.58 0.452294 45.0101 0.888109 14.5847 0.21996 0.235601 9.30329 0.0359706 15.4525 0.0217318 6.23992 8.00815
19701.00 1415.20 0.491372 45.0489 0.887492 14.6042 0.221916 0.233542 9.28407 0.0356369 15.4365 0.0215235 6.28492 7.9413
19601.00 1414.82 0.531097 45.0876 0.886868 14.6236 0.223901 0.231484 9.26491 0.0353043 15.4205 0.0213161 6.33032 7.87417
19501.00 1414.43 0.571487 45.1263 0.886237 14.6428 0.225916 0.229428 9.24579 0.034973 15.4045 0.0211094 6.37612 7.80678
19401.00 1414.05 0.612563 45.165 0.885597 14.6618 0.22796 0.227374 9.22672 0.0346428 15.3885 0.0209035 6.42231 7.73912
19301.00 1413.66 0.654343 45.2036 0.884948 14.6807 0.230034 0.225322 9.2077 0.0343139 15.3725 0.0206985 6.46891 7.67122
19201.00 1413.27 0.696849 45.2422 0.88429 14.6994 0.232139 0.223273 9.18872 0.0339862 15.3565 0.0204943 6.5159 7.60306
19101.00 1412.88 0.740103 45.2808 0.883622 14.7179 0.234274 0.221227 9.16978 0.0336598 15.3405 0.020291 6.5633 7.53466
19001.00 1412.48 0.784126 45.3193 0.882944 14.7362 0.236441 0.219185 9.15089 0.0333346 15.3245 0.0200885 6.61111 7.46603
18901.00 1412.09 0.828941 45.3578 0.882255 14.7544 0.238639 0.217147 9.13202 0.0330107 15.3084 0.0198868 6.65931 7.39717
18801.00 1411.69 0.874571 45.3962 0.881554 14.7724 0.240868 0.215114 9.11319 0.0326881 15.2923 0.0196861 6.70792 7.32809
18701.00 1411.28 0.921042 45.4346 0.880841 14.7902 0.243129 0.213085 9.0944 0.0323667 15.2762 0.0194861 6.75693 7.2588
18601.00 1410.88 0.968378 45.4729 0.880115 14.8078 0.245422 0.211062 9.07562 0.0320467 15.26 0.0192871 6.80635 7.18931
18501.00 1410.47 1.016604 45.5112 0.879375 14.8253 0.247748 0.209045 9.05687 0.031728 15.2438 0.019089 6.85617 7.11962
18401.00 1410.06 1.050235 45.5494 0.878624 14.8426 0.250108 0.207031 9.03818 0.0314106 15.2276 0.0188917 6.90642 7.04969
18301.00 1409.65 1.050210 45.5875 0.877874 14.8597 0.252508 0.205015 9.0196 0.0310945 15.2115 0.0186953 6.95718 6.97941
18201.00 1409.23 1.050190 45.6254 0.877122 14.8765 0.254947 0.202996 9.00116 0.0307797 15.1954 0.0184998 7.00844 6.90876
18101.00 1408.82 1.050176 45.6631 0.87637 14.8932 0.257427 0.200975 8.98284 0.0304662 15.1794 0.0183052 7.06021 6.83777
18001.00 1408.40 1.050166 45.7006 0.875616 14.9097 0.259948 0.198952 8.96464 0.030154 15.1634 0.0181115 7.11251 6.76643
17901.00 1407.98 1.050163 45.7379 0.874861 14.9259 0.262511 0.196928 8.94657 0.0298431 15.1475 0.0179187 7.16532 6.69474
17801.00 1407.56 1.050165 45.775 0.874105 14.942 0.265117 0.194902 8.92863 0.0295335 15.1316 0.0177267 7.21865 6.62272
17701.00 1407.14 1.050174 45.812 0.873347 14.9579 0.267767 0.192876 8.91081 0.0292253 15.1158 0.0175357 7.27252 6.55035
17601.00 1406.72 1.050189 45.8487 0.872587 14.9735 0.27046 0.19085 8.89311 0.0289184 15.1 0.0173456 7.32692 6.47766
17501.00 1406.29 1.050210 45.8852 0.871824 14.9889 0.273199 0.188823 8.87554 0.0286128 15.0842 0.0171564 7.38186 6.40463
17401.00 1405.87 1.050239 45.9215 0.87106 15.0042 0.275983 0.186797 8.8581 0.0283087 15.0685 0.0169682 7.43734 6.33129
17301.00 1405.44 1.050275 45.9575 0.870292 15.0192 0.278813 0.184771 8.84077 0.0280059 15.0529 0.0167809 7.49336 6.25762
17201.00 1405.01 1.050318 45.9934 0.869521 15.034 0.28169 0.182747 8.82357 0.0277045 15.0373 0.0165945 7.54994 6.18364
17101.00 1404.58 1.050369 46.029 0.868746 15.0486 0.284615 0.180724 8.80649 0.0274046 15.0217 0.0164091 7.60706 6.10936
17001.00 1404.14 1.050428 46.0643 0.867967 15.063 0.287587 0.178702 8.78953 0.027106 15.0061 0.0162246 7.66475 6.03477
16901.00 1403.71 1.050495 46.0994 0.867184 15.0771 0.290609 0.176683 8.77269 0.0268088 14.9905 0.016041 7.72299 5.95989
16801.00 1403.27 1.050571 46.1343 0.866396 15.0911 0.293681 0.174667 8.75596 0.0265131 14.975 0.0158585 7.78179 5.88471
16701.00 1402.83 1.050657 46.1689 0.865602 15.1048 0.296803 0.172654 8.73936 0.0262188 14.9595 0.0156769 7.84117 5.80926
16601.00 1402.38 1.050751 46.2033 0.864803 15.1183 0.299975 0.170644 8.72286 0.025926 14.944 0.0154962 7.9011 5.73353
16501.00 1401.94 1.050855 46.2374 0.863996 15.1317 0.303199 0.168638 8.70648 0.0256346 14.9285 0.0153166 7.96161 5.65753
16401.00 1401.49 1.050970 46.2713 0.863182 15.1448 0.306476 0.166636 8.69021 0.0253448 14.913 0.0151379 8.0227 5.58126
16301.00 1401.04 1.051095 46.3049 0.86236 15.1576 0.309804 0.164639 8.67404 0.0250563 14.8975 0.0149602 8.08436 5.50475
16201.00 1400.59 1.051231 46.3382 0.861529 15.1703 0.313187 0.162646 8.65799 0.0247694 14.882 0.0147835 8.14659 5.42799
16101.00 1400.14 1.051379 46.3712 0.860689 15.1828 0.316622 0.16066 8.64203 0.024484 14.8665 0.0146078 8.20941 5.35099
16001.00 1399.68 1.051538 46.404 0.859838 15.195 0.320112 0.158679 8.62617 0.0242001 14.851 0.0144331 8.2728 5.27376
15901.00 1399.22 1.051710 46.4366 0.858976 15.207 0.323657 0.156705 8.61041 0.0239177 14.8354 0.0142594 8.33678 5.19632
15801.00 1398.76 1.051894 46.4688 0.858102 15.2188 0.327257 0.154737 8.59474 0.0236369 14.8198 0.0140867 8.40134 5.11866
15701.00 1398.29 1.052092 46.5008 0.857214 15.2304 0.330912 0.152777 8.57916 0.0233576 14.8042 0.013915 8.46648 5.04081
15601.00 1397.82 1.052304 46.5325 0.856312 15.2418 0.334624 0.150824 8.56366 0.0230798 14.7885 0.0137444 8.5322 4.96276
15501.00 1397.35 1.052531 46.564 0.855394 15.253 0.338391 0.14888 8.54825 0.0228036 14.7727 0.0135748 8.5985 4.88454
15401.00 1396.88 1.052772 46.5951 0.85446 15.2639 0.342215 0.146944 8.53291 0.022529 14.7569 0.0134062 8.66538 4.80615
15301.00 1396.40 1.053029 46.626 0.853507 15.2747 0.346095 0.145017 8.51764 0.022256 14.7411 0.0132387 8.73285 4.72761
15201.00 1395.92 1.053303 46.6567 0.852535 15.2852 0.350031 0.1431 8.50244 0.0219846 14.7251 0.0130722 8.80089 4.64892
15101.00 1395.44 1.053593 46.6871 0.851542 15.2956 0.354025 0.141193 8.48729 0.0217148 14.7091 0.0129068 8.8695 4.5701
15001.00 1394.96 1.053901 46.7172 0.850527 15.3057 0.358075 0.139296 8.4722 0.0214466 14.6929 0.0127424 8.93869 4.49117
14901.00 1394.47 1.054228 46.7471 0.849488 15.3156 0.362182 0.13741 8.45716 0.02118 14.6767 0.0125791 9.00845 4.41213
14801.00 1393.97 1.054573 46.7767 0.848422 15.3254 0.366345 0.135536 8.44216 0.0209151 14.6603 0.0124169 9.07878 4.333
14701.00 1393.48 1.054939 46.8061 0.84733 15.3349 0.370564 0.133673 8.4272 0.0206518 14.6438 0.0122557 9.14966 4.25379
14601.00 1392.98 1.055325 46.8353 0.846207 15.3442 0.374839 0.131824 8.41226 0.0203903 14.6272 0.0120956 9.22111 4.17453
14501.00 1392.47 1.055733 46.8642 0.845054 15.3534 0.379169 0.129986 8.39734 0.0201303 14.6105 0.0119366 9.2931 4.09522
14401.00 1391.96 1.056164 46.8929 0.843866 15.3623 0.383554 0.128163 8.38243 0.0198721 14.5936 0.0117788 9.36564 4.01588
14301.00 1391.45 1.056617 46.9215 0.842643 15.3711 0.387993 0.126353 8.36752 0.0196156 14.5765 0.011622 9.43872 3.93653
14201.00 1390.94 1.057096 46.9498 0.841382 15.3796 0.392485 0.124558 8.35261 0.0193608 14.5592 0.0114663 9.51232 3.85718
14101.00 1390.42 1.057600 46.9779 0.840079 15.388 0.397029 0.122778 8.33768 0.0191077 14.5418 0.0113117 9.58645 3.77786
14001.00 1389.89 1.058130 47.0059 0.838734 15.3962 0.401625 0.121013 8.32272 0.0188564 14.5241 0.0111583 9.66109 3.69857
13901.00 1389.36 1.058688 47.0337 0.837343 15.4042 0.40627 0.119264 8.30773 0.0186069 14.5063 0.011006 9.73624 3.61935
13801.00 1388.83 1.059274 47.0614 0.835902 15.4121 0.410965 0.117532 8.29268 0.0183591 14.4882 0.0108548 9.81187 3.54021
13701.00 1388.29 1.059891 47.0889 0.83441 15.4198 0.415706 0.115817 8.27758 0.0181131 14.4698 0.0107048 9.88799 3.46117
13601.00 1387.75 1.060538 47.1164 0.832863 15.4273 0.420493 0.114119 8.26241 0.0178689 14.4512 0.0105559 9.96457 3.38225
13501.00 1387.20 1.061219 47.1437 0.831257 15.4346 0.425323 0.11244 8.24715 0.0176265 14.4324 0.0104082 10.0416 3.30347
13401.00 1386.64 1.061933 47.171 0.82959 15.4418 0.430195 0.110779 8.23179 0.0173859 14.4133 0.0102617 10.1191 3.22485
13301.00 1386.08 1.062682 47.1982 0.827857 15.4488 0.435106 0.109138 8.21632 0.0171472 14.3938 0.0101163 10.197 3.14643
13201.00 1385.52 1.063468 47.2255 0.826055 15.4557 0.440054 0.107516 8.20073 0.0169104 14.3741 0.00997211 10.2753 3.06821
13101.00 1384.95 1.064292 47.2527 0.82418 15.4624 0.445037 0.105914 8.18499 0.0166754 14.354 0.00982913 10.354 2.99023
13001.00 1384.37 1.065156 47.2799 0.822228 15.469 0.45005 0.104334 8.1691 0.0164423 14.3336 0.00968734 10.433 2.91251
12901.00 1383.79 1.066062 47.3073 0.820194 15.4755 0.455092 0.102774 8.15303 0.0162112 14.3129 0.00954676 10.5124 2.83508
12801.00 1383.20 1.067011 47.3347 0.818074 15.4818 0.460159 0.101237 8.13678 0.0159819 14.2918 0.0094074 10.5922 2.75796
12701.00 1382.60 1.068005 47.3622 0.815863 15.488 0.465248 0.0997227 8.12031 0.0157547 14.2702 0.00926927 10.6722 2.68118
12601.00 1382.00 1.069046 47.3899 0.813556 15.4941 0.470354 0.0982312 8.10363 0.0155294 14.2483 0.00913239 10.7525 2.60476
12501.00 1381.39 1.070135 47.4177 0.811149 15.5001 0.475474 0.0967635 8.08669 0.015306 14.226 0.00899675 10.8331 2.52875
12401.00 1380.77 1.071275 47.4458 0.808636 15.5059 0.480603 0.0953201 8.06949 0.0150847 14.2032 0.00886237 10.9139 2.45316
12301.00 1380.14 1.072468 47.4742 0.806011 15.5117 0.485737 0.0939016 8.05201 0.0148654 14.18 0.00872925 10.9948 2.37803
12201.00 1379.51 1.073716 47.5028 0.803269 15.5173 0.490871 0.0925086 8.03422 0.0146482 14.1563 0.00859742 11.076 2.30338
12101.00 1378.87 1.075021 47.5319 0.800405 15.5229 0.495999 0.0911417 8.0161 0.014433 14.1322 0.00846688 11.1573 2.22926
12001.00 1378.22 1.076385 47.5613 0.797411 15.5284 0.501117 0.0898016 7.99763 0.01422 14.1075 0.00833765 11.2386 2.15569
11901.00 1377.56 1.077810 47.5912 0.794282 15.5337 0.506219 0.0884888 7.97879 0.014009 14.0823 0.00820972 11.32 2.0827
11801.00 1376.89 1.079299 47.6216 0.791011 15.5391 0.511299 0.0872041 7.95955 0.0138002 14.0566 0.00808313 11.4015 2.01034
11701.00 1376.21 1.080855 47.6525 0.787591 15.5443 0.51635 0.085948 7.93988 0.0135935 14.0304 0.00795787 11.4829 1.93864
11601.00 1375.53 1.082478 47.684 0.784016 15.5494 0.521366 0.0847212 7.91977 0.013389 14.0035 0.00783397 11.5643 1.86763
11501.00 1374.83 1.084173 47.7163 0.780279 15.5545 0.52634 0.0835244 7.89918 0.0131868 13.9761 0.00771142 11.6455 1.79735
11401.00 1374.12 1.085940 47.7492 0.776372 15.5596 0.531265 0.0823583 7.8781 0.0129867 13.9481 0.00759026 11.7266 1.72785
11301.00 1373.40 1.087783 47.783 0.772288 15.5645 0.536134 0.0812236 7.85648 0.012789 13.9195 0.00747049 11.8075 1.65916
11201.00 1372.67 1.089704 47.8176 0.768019 15.5694 0.540938 0.080121 7.8343 0.0125935 13.8902 0.00735212 11.8881 1.59132
11101.00 1371.93 1.091704 47.8531 0.763559 15.5743 0.545671 0.0790513 7.81154 0.0124003 13.8603 0.00723518 11.9685 1.52437
11001.00 1371.18 1.093786 47.8897 0.758898 15.5791 0.550324 0.0780152 7.78816 0.0122095 13.8297 0.00711967 12.0484 1.45836
10901.00 1370.41 1.095952 47.9273 0.754029 15.5838 0.554888 0.0770135 7.76413 0.0120211 13.7985 0.00700562 12.128 1.39333
10801.00 1369.63 1.098202 47.9661 0.748944 15.5885 0.559355 0.0760471 7.73943 0.0118351 13.7665 0.00689303 12.207 1.32933
10701.00 1368.84 1.100540 48.0062 0.743636 15.5932 0.563716 0.0751168 7.71402 0.0116515 13.7338 0.00678192 12.2855 1.26639
