Title: Depleted MORB Mantle of Workmann & Hart 2005

Phase Masses:
Pressure Temperature mass liquid_0 olivine_0 garnet_0 orthopyroxene_0 clinopyroxene_0 feldspar_0 spinel_0 
44001.00 1478.07 100.138999 0.000000 59.085672 12.644311 13.428532 13.884193 0.000000 1.096291 
43901.00 1477.85 100.138999 0.000000 59.084507 12.631685 13.435930 13.889386 0.000000 1.097491 
43801.00 1477.62 100.138999 0.000000 59.083332 12.618967 13.443371 13.894626 0.000000 1.098703 
43701.00 1477.39 100.138999 0.000000 59.082147 12.606157 13.450858 13.899912 0.000000 1.099925 
43601.00 1477.16 100.138999 0.000000 59.080950 12.593253 13.458390 13.905246 0.000000 1.101160 
43501.00 1476.94 100.138999 0.000000 59.079743 12.580254 13.465968 13.910629 0.000000 1.102405 
43401.00 1476.71 100.138999 0.000000 59.078524 12.567160 13.473593 13.916060 0.000000 1.103663 
43301.00 1476.48 100.138999 0.000000 59.077294 12.553969 13.481264 13.921540 0.000000 1.104932 
43201.00 1476.26 100.138999 0.000000 59.076052 12.540681 13.488983 13.927070 0.000000 1.106214 
43101.00 1476.03 100.138999 0.000000 59.074798 12.527294 13.496750 13.932650 0.000000 1.107507 
43001.00 1475.80 100.138999 0.000000 59.073533 12.513807 13.504565 13.938281 0.000000 1.108813 
42901.00 1475.57 100.138999 0.000000 59.072256 12.500220 13.512429 13.943963 0.000000 1.110132 
42801.00 1475.35 100.138999 0.000000 59.070966 12.486531 13.520342 13.949696 0.000000 1.111464 
42701.00 1475.12 100.138999 0.000000 59.069664 12.472739 13.528306 13.955482 0.000000 1.112808 
42601.00 1474.89 100.138999 0.000000 59.068349 12.458843 13.536320 13.961321 0.000000 1.114166 
42501.00 1474.66 100.138999 0.000000 59.067022 12.444842 13.544385 13.967213 0.000000 1.115537 
42401.00 1474.44 100.138999 0.000000 59.065681 12.430735 13.552501 13.973159 0.000000 1.116922 
42301.00 1474.21 100.138999 0.000000 59.064328 12.416521 13.560670 13.979160 0.000000 1.118320 
42201.00 1473.98 100.138999 0.000000 59.062961 12.402198 13.568892 13.985215 0.000000 1.119733 
42101.00 1473.75 100.138999 0.000000 59.061580 12.387766 13.577167 13.991326 0.000000 1.121160 
42001.00 1473.53 100.138999 0.000000 59.060186 12.373223 13.585496 13.997494 0.000000 1.122601 
41901.00 1473.30 100.138999 0.000000 59.058777 12.358568 13.593879 14.003718 0.000000 1.124057 
41801.00 1473.07 100.138999 0.000000 59.057355 12.343799 13.602318 14.010000 0.000000 1.125527 
41701.00 1472.84 100.138999 0.000000 59.055917 12.328916 13.610812 14.016340 0.000000 1.127013 
41601.00 1472.61 100.138999 0.000000 59.054466 12.313918 13.619363 14.022738 0.000000 1.128514 
41501.00 1472.39 100.138999 0.000000 59.052999 12.298802 13.627971 14.029196 0.000000 1.130031 
41401.00 1472.16 100.138999 0.000000 59.051517 12.283568 13.636637 14.035714 0.000000 1.131563 
41301.00 1471.93 100.138999 0.000000 59.050020 12.268214 13.645361 14.042293 0.000000 1.133112 
41201.00 1471.70 100.138999 0.000000 59.048507 12.252739 13.654144 14.048932 0.000000 1.134677 
41101.00 1471.47 100.138999 0.000000 59.046978 12.237142 13.662987 14.055634 0.000000 1.136258 
41001.00 1471.24 100.138999 0.000000 59.045434 12.221420 13.671890 14.062398 0.000000 1.137857 
40901.00 1471.02 100.138999 0.000000 59.043873 12.205574 13.680855 14.069226 0.000000 1.139472 
40801.00 1470.79 100.138999 0.000000 59.042295 12.189601 13.689881 14.076118 0.000000 1.141105 
40701.00 1470.56 100.138999 0.000000 59.040700 12.173500 13.698970 14.083074 0.000000 1.142755 
40601.00 1470.33 100.138999 0.000000 59.039088 12.157269 13.708123 14.090096 0.000000 1.144423 
40501.00 1470.10 100.138999 0.000000 59.037459 12.140907 13.717340 14.097184 0.000000 1.146110 
40401.00 1469.87 100.138999 0.000000 59.035812 12.124412 13.726622 14.104339 0.000000 1.147815 
40301.00 1469.64 100.138999 0.000000 59.034147 12.107784 13.735969 14.111561 0.000000 1.149538 
40201.00 1469.41 100.138999 0.000000 59.032463 12.091019 13.745383 14.118852 0.000000 1.151281 
40101.00 1469.18 100.138999 0.000000 59.030762 12.074117 13.754865 14.126212 0.000000 1.153044 
40001.00 1468.96 100.138999 0.000000 59.029041 12.057076 13.764414 14.133642 0.000000 1.154826 
39901.00 1468.73 100.138999 0.000000 59.027301 12.039894 13.774033 14.141143 0.000000 1.156628 
39801.00 1468.50 100.138999 0.000000 59.025541 12.022570 13.783722 14.148716 0.000000 1.158450 
39701.00 1468.27 100.138999 0.000000 59.023761 12.005102 13.793482 14.156361 0.000000 1.160294 
39601.00 1468.04 100.138999 0.000000 59.021962 11.987487 13.803313 14.164079 0.000000 1.162158 
39501.00 1467.81 100.138999 0.000000 59.020141 11.969726 13.813217 14.171871 0.000000 1.164044 
39401.00 1467.58 100.138999 0.000000 59.018300 11.951815 13.823195 14.179739 0.000000 1.165951 
39301.00 1467.35 100.138999 0.000000 59.016438 11.933752 13.833247 14.187682 0.000000 1.167881 
39201.00 1467.12 100.138999 0.000000 59.014554 11.915536 13.843374 14.195701 0.000000 1.169833 
39101.00 1466.89 100.138999 0.000000 59.012648 11.897166 13.853579 14.203799 0.000000 1.171808 
39001.00 1466.66 100.138999 0.000000 59.010719 11.878638 13.863860 14.211975 0.000000 1.173807 
38901.00 1466.43 100.138999 0.000000 59.008768 11.859951 13.874220 14.220230 0.000000 1.175829 
38801.00 1466.20 100.138999 0.000000 59.006794 11.841104 13.884660 14.228566 0.000000 1.177875 
38701.00 1465.97 100.138999 0.000000 59.004796 11.822093 13.895181 14.236983 0.000000 1.179946 
38601.00 1465.74 100.138999 0.000000 59.002775 11.802918 13.905783 14.245482 0.000000 1.182041 
38501.00 1465.51 100.138999 0.000000 59.000729 11.783575 13.916468 14.254065 0.000000 1.184162 
38401.00 1465.27 100.138999 0.000000 58.998658 11.764063 13.927237 14.262732 0.000000 1.186309 
38301.00 1465.04 100.138999 0.000000 58.996562 11.744379 13.938091 14.271484 0.000000 1.188482 
38201.00 1464.81 100.138999 0.000000 58.994441 11.724522 13.949031 14.280323 0.000000 1.190682 
38101.00 1464.58 100.138999 0.000000 58.992293 11.704489 13.960059 14.289249 0.000000 1.192909 
38001.00 1464.35 100.138999 0.000000 58.990119 11.684277 13.971176 14.298264 0.000000 1.195164 
37901.00 1464.12 100.138999 0.000000 58.987918 11.663885 13.982382 14.307368 0.000000 1.197446 
37801.00 1463.89 100.138999 0.000000 58.985689 11.643310 13.993680 14.316563 0.000000 1.199758 
37701.00 1463.66 100.138999 0.000000 58.983432 11.622549 14.005070 14.325849 0.000000 1.202098 
37601.00 1463.42 100.138999 0.000000 58.981147 11.601601 14.016554 14.335229 0.000000 1.204468 
37501.00 1463.19 100.138999 0.000000 58.978833 11.580462 14.028133 14.344703 0.000000 1.206869 
37401.00 1462.96 100.138999 0.000000 58.976489 11.559130 14.039808 14.354272 0.000000 1.209300 
37301.00 1462.73 100.138999 0.000000 58.974116 11.537602 14.051582 14.363938 0.000000 1.211763 
37201.00 1462.50 100.138999 0.000000 58.971711 11.515876 14.063454 14.373701 0.000000 1.214257 
37101.00 1462.26 100.138999 0.000000 58.969276 11.493949 14.075428 14.383563 0.000000 1.216784 
37001.00 1462.03 100.138999 0.000000 58.966808 11.471818 14.087504 14.393526 0.000000 1.219344 
36901.00 1461.80 100.138999 0.000000 58.964309 11.449481 14.099683 14.403590 0.000000 1.221937 
36801.00 1461.57 100.138999 0.000000 58.961776 11.426934 14.111968 14.413757 0.000000 1.224565 
36701.00 1461.33 100.138999 0.000000 58.959210 11.404174 14.124360 14.424028 0.000000 1.227228 
36601.00 1461.10 100.138999 0.000000 58.956609 11.381200 14.136860 14.434404 0.000000 1.229926 
36501.00 1460.87 100.138999 0.000000 58.953974 11.358006 14.149470 14.444888 0.000000 1.232660 
36401.00 1460.63 100.138999 0.000000 58.951304 11.334592 14.162192 14.455480 0.000000 1.235432 
36301.00 1460.40 100.138999 0.000000 58.948597 11.310952 14.175028 14.466181 0.000000 1.238241 
36201.00 1460.17 100.138999 0.000000 58.945853 11.287085 14.187979 14.476994 0.000000 1.241088 
36101.00 1459.93 100.138999 0.000000 58.943072 11.262986 14.201047 14.487919 0.000000 1.243974 
36001.00 1459.70 100.138999 0.000000 58.940253 11.238653 14.214233 14.498959 0.000000 1.246900 
35901.00 1459.47 100.138999 0.000000 58.937395 11.214082 14.227541 14.510114 0.000000 1.249867 
35801.00 1459.23 100.138999 0.000000 58.934497 11.189270 14.240971 14.521387 0.000000 1.252874 
35701.00 1459.00 100.138999 0.000000 58.931559 11.164212 14.254526 14.532779 0.000000 1.255924 
35601.00 1458.76 100.138999 0.000000 58.928579 11.138906 14.268207 14.544290 0.000000 1.259017 
35501.00 1458.53 100.138999 0.000000 58.925557 11.113347 14.282016 14.555925 0.000000 1.262153 
35401.00 1458.29 100.138999 0.000000 58.922493 11.087533 14.295957 14.567683 0.000000 1.265334 
35301.00 1458.06 100.138999 0.000000 58.919385 11.061458 14.310030 14.579566 0.000000 1.268561 
35201.00 1457.82 100.138999 0.000000 58.916232 11.035120 14.324237 14.591577 0.000000 1.271833 
35101.00 1457.59 100.138999 0.000000 58.913034 11.008513 14.338582 14.603717 0.000000 1.275153 
35001.00 1457.35 100.138999 0.000000 58.909789 10.981635 14.353066 14.615987 0.000000 1.278521 
34901.00 1457.12 100.138999 0.000000 58.906498 10.954480 14.367692 14.628391 0.000000 1.281938 
34801.00 1456.88 100.138999 0.000000 58.903158 10.927045 14.382462 14.640929 0.000000 1.285406 
34701.00 1456.64 100.138999 0.000000 58.899769 10.899325 14.397378 14.653604 0.000000 1.288924 
34601.00 1456.41 100.138999 0.000000 58.896329 10.871316 14.412443 14.666417 0.000000 1.292494 
34501.00 1456.17 100.138999 0.000000 58.892839 10.843013 14.427659 14.679371 0.000000 1.296118 
34401.00 1455.93 100.138999 0.000000 58.889297 10.814411 14.443029 14.692467 0.000000 1.299795 
34301.00 1455.70 100.138999 0.000000 58.885701 10.785507 14.458556 14.705707 0.000000 1.303528 
34201.00 1455.46 100.138999 0.000000 58.882051 10.756294 14.474241 14.719095 0.000000 1.307317 
34101.00 1455.22 100.138999 0.000000 58.878346 10.726769 14.490089 14.732631 0.000000 1.311164 
34001.00 1454.99 100.138999 0.000000 58.874584 10.696925 14.506101 14.746319 0.000000 1.315069 
33901.00 1454.75 100.138999 0.000000 58.870765 10.666758 14.522281 14.760160 0.000000 1.319035 
33801.00 1454.51 100.138999 0.000000 58.866886 10.636263 14.538632 14.774156 0.000000 1.323061 
33701.00 1454.27 100.138999 0.000000 58.862948 10.605435 14.555156 14.788311 0.000000 1.327150 
33601.00 1454.03 100.138999 0.000000 58.858948 10.574266 14.571856 14.802626 0.000000 1.331303 
33501.00 1453.80 100.138999 0.000000 58.854886 10.542753 14.588736 14.817103 0.000000 1.335520 
33401.00 1453.56 100.138999 0.000000 58.850760 10.510890 14.605800 14.831746 0.000000 1.339804 
33301.00 1453.32 100.138999 0.000000 58.846568 10.478670 14.623049 14.846557 0.000000 1.344156 
33201.00 1453.08 100.138999 0.000000 58.842310 10.446087 14.640488 14.861538 0.000000 1.348576 
33101.00 1452.84 100.138999 0.000000 58.837984 10.413136 14.658119 14.876692 0.000000 1.353068 
33001.00 1452.60 100.138999 0.000000 58.833588 10.379810 14.675948 14.892023 0.000000 1.357631 
32901.00 1452.36 100.138999 0.000000 58.829122 10.346102 14.693976 14.907531 0.000000 1.362268 
32801.00 1452.12 100.138999 0.000000 58.824583 10.312007 14.712208 14.923221 0.000000 1.366980 
32701.00 1451.88 100.138999 0.000000 58.819970 10.277517 14.730648 14.939096 0.000000 1.371769 
32601.00 1451.64 100.138999 0.000000 58.815281 10.242625 14.749299 14.955157 0.000000 1.376636 
32501.00 1451.40 100.138999 0.000000 58.810516 10.207325 14.768166 14.971409 0.000000 1.381584 
32401.00 1451.16 100.138999 0.000000 58.805671 10.171609 14.787251 14.987854 0.000000 1.386613 
32301.00 1450.92 100.138999 0.000000 58.800746 10.135471 14.806561 15.004496 0.000000 1.391726 
32201.00 1450.67 100.138999 0.000000 58.795738 10.098901 14.826098 15.021337 0.000000 1.396924 
32101.00 1450.43 100.138999 0.000000 58.790646 10.061894 14.845867 15.038382 0.000000 1.402210 
32001.00 1450.19 100.138999 0.000000 58.785469 10.024440 14.865873 15.055632 0.000000 1.407585 
31901.00 1449.95 100.138999 0.000000 58.780203 9.986532 14.886120 15.073093 0.000000 1.413050 
31801.00 1449.70 100.138999 0.000000 58.774848 9.948162 14.906613 15.090767 0.000000 1.418609 
31701.00 1449.46 100.138999 0.000000 58.769401 9.909321 14.927356 15.108658 0.000000 1.424263 
31601.00 1449.22 100.138999 0.000000 58.763860 9.870000 14.948355 15.126769 0.000000 1.430015 
31501.00 1448.97 100.138999 0.000000 58.758223 9.830191 14.969615 15.145105 0.000000 1.435866 
31401.00 1448.73 100.138999 0.000000 58.752488 9.789884 14.991140 15.163669 0.000000 1.441818 
31301.00 1448.48 100.138999 0.000000 58.746653 9.749071 15.012936 15.182465 0.000000 1.447875 
31201.00 1448.24 100.138999 0.000000 58.740715 9.707741 15.035008 15.201498 0.000000 1.454038 
31101.00 1447.99 100.138999 0.000000 58.734672 9.665885 15.057362 15.220771 0.000000 1.460309 
31001.00 1447.75 100.138999 0.000000 58.728522 9.623493 15.080004 15.240288 0.000000 1.466692 
30901.00 1447.50 100.138999 0.000000 58.722262 9.580554 15.102939 15.260055 0.000000 1.473188 
30801.00 1447.26 100.138999 0.000000 58.715890 9.537059 15.126174 15.280075 0.000000 1.479801 
30701.00 1447.01 100.138999 0.000000 58.709404 9.492996 15.149714 15.300353 0.000000 1.486533 
30601.00 1446.76 100.138999 0.000000 58.702800 9.448354 15.173566 15.320894 0.000000 1.493386 
30501.00 1446.52 100.138999 0.000000 58.696075 9.403122 15.197736 15.341702 0.000000 1.500364 
30401.00 1446.27 100.138999 0.000000 58.689228 9.357289 15.222231 15.362783 0.000000 1.507469 
30301.00 1446.02 100.138999 0.000000 58.682255 9.310842 15.247057 15.384141 0.000000 1.514705 
30201.00 1445.77 100.138999 0.000000 58.675153 9.263769 15.272223 15.405781 0.000000 1.522074 
30101.00 1445.52 100.138999 0.000000 58.667919 9.216057 15.297734 15.427710 0.000000 1.529579 
30001.00 1445.27 100.138999 0.000000 58.660550 9.167694 15.323598 15.449932 0.000000 1.537225 
29901.00 1445.03 100.138999 0.000000 58.653043 9.118667 15.349823 15.472453 0.000000 1.545013 
29801.00 1444.78 100.138999 0.000000 58.645395 9.068962 15.376416 15.495278 0.000000 1.552948 
29701.00 1444.52 100.138999 0.000000 58.637602 9.018564 15.403386 15.518414 0.000000 1.561033 
29601.00 1444.27 100.138999 0.000000 58.629660 8.967461 15.430740 15.541866 0.000000 1.569272 
29501.00 1444.02 100.138999 0.000000 58.621567 8.915636 15.458487 15.565642 0.000000 1.577667 
29401.00 1443.77 100.138999 0.000000 58.613318 8.863075 15.486636 15.589746 0.000000 1.586224 
29301.00 1443.52 100.138999 0.000000 58.604909 8.809763 15.515195 15.614186 0.000000 1.594946 
29201.00 1443.27 100.138999 0.000000 58.596338 8.755683 15.544174 15.638968 0.000000 1.603837 
29101.00 1443.01 100.138999 0.000000 58.587599 8.700818 15.573582 15.664099 0.000000 1.612901 
29001.00 1442.76 100.138999 0.000000 58.578688 8.645154 15.603428 15.689586 0.000000 1.622142 
28901.00 1442.51 100.138999 0.000000 58.569602 8.588670 15.633723 15.715438 0.000000 1.631566 
28801.00 1442.25 100.138999 0.000000 58.560336 8.531351 15.664476 15.741660 0.000000 1.641176 
28701.00 1442.00 100.138999 0.000000 58.550885 8.473178 15.695699 15.768260 0.000000 1.650976 
28601.00 1441.74 100.138999 0.000000 58.541245 8.414131 15.727402 15.795248 0.000000 1.660973 
28501.00 1441.48 100.138999 0.000000 58.531411 8.354192 15.759595 15.822630 0.000000 1.671170 
28401.00 1441.23 100.138999 0.000000 58.521378 8.293341 15.792292 15.850415 0.000000 1.681574 
28301.00 1440.97 100.138999 0.000000 58.511141 8.231556 15.825502 15.878612 0.000000 1.692188 
28201.00 1440.71 100.138999 0.000000 58.500694 8.168817 15.859239 15.907230 0.000000 1.703019 
28101.00 1440.45 100.138999 0.000000 58.490033 8.105101 15.893515 15.936278 0.000000 1.714073 
28001.00 1440.19 100.138999 0.000000 58.479151 8.040387 15.928343 15.965764 0.000000 1.725354 
27901.00 1439.93 100.138999 0.000000 58.468043 7.974652 15.963735 15.995700 0.000000 1.736869 
27801.00 1439.67 100.138999 0.000000 58.456703 7.907870 15.999707 16.026095 0.000000 1.748624 
27701.00 1439.41 100.138999 0.000000 58.445125 7.840018 16.036272 16.056959 0.000000 1.760626 
27601.00 1439.15 100.138999 0.000000 58.433302 7.771071 16.073444 16.088302 0.000000 1.772880 
27501.00 1438.89 100.138999 0.000000 58.421228 7.701001 16.111238 16.120137 0.000000 1.785394 
27401.00 1438.63 100.138999 0.000000 58.408896 7.629783 16.149671 16.152474 0.000000 1.798175 
27301.00 1438.36 100.138999 0.000000 58.396299 7.557387 16.188758 16.185325 0.000000 1.811230 
27201.00 1438.10 100.138999 0.000000 58.383430 7.483786 16.228515 16.218701 0.000000 1.824566 
27101.00 1437.83 100.138999 0.000000 58.370282 7.408950 16.268960 16.252616 0.000000 1.838191 
27001.00 1437.57 100.138999 0.000000 58.356846 7.332847 16.310111 16.287082 0.000000 1.852113 
26901.00 1437.30 100.138999 0.000000 58.343114 7.255446 16.351984 16.322113 0.000000 1.866341 
26801.00 1437.03 100.138999 0.000000 58.329079 7.176714 16.394601 16.357722 0.000000 1.880883 
26701.00 1436.77 100.138999 0.000000 58.314732 7.096618 16.437979 16.393923 0.000000 1.895747 
26601.00 1436.50 100.138999 0.000000 58.300063 7.015121 16.482139 16.430732 0.000000 1.910943 
26501.00 1436.23 100.138999 0.000000 58.285064 6.932188 16.527103 16.468163 0.000000 1.926481 
26401.00 1435.96 100.138999 0.000000 58.269725 6.847782 16.572891 16.506232 0.000000 1.942370 
26301.00 1435.68 100.138999 0.000000 58.254037 6.761862 16.619526 16.544955 0.000000 1.958620 
26201.00 1435.41 100.138999 0.000000 58.237988 6.674389 16.667031 16.584349 0.000000 1.975242 
26101.00 1435.14 100.138999 0.000000 58.221569 6.585321 16.715430 16.624432 0.000000 1.992247 
26001.00 1434.86 100.138999 0.000000 58.204768 6.494614 16.764748 16.665222 0.000000 2.009647 
25901.00 1434.59 100.138999 0.000000 58.187574 6.402225 16.815011 16.706737 0.000000 2.027452 
25801.00 1434.31 100.138999 0.000000 58.169975 6.308105 16.866246 16.748997 0.000000 2.045676 
25701.00 1434.04 100.138999 0.000000 58.151958 6.212207 16.918480 16.792022 0.000000 2.064331 
25601.00 1433.76 100.138999 0.000000 58.133512 6.114482 16.971742 16.835834 0.000000 2.083430 
25501.00 1433.48 100.138999 0.000000 58.114621 6.014875 17.026062 16.880453 0.000000 2.102987 
25401.00 1433.20 100.138999 0.000000 58.095274 5.913335 17.081472 16.925902 0.000000 2.123017 
25301.00 1432.92 100.138999 0.000000 58.075455 5.809804 17.138002 16.972205 0.000000 2.143533 
25201.00 1432.63 100.138999 0.000000 58.055149 5.704224 17.195688 17.019386 0.000000 2.164552 
25101.00 1432.35 100.138999 0.000000 58.034341 5.596534 17.254563 17.067471 0.000000 2.186090 
25001.00 1432.06 100.138999 0.000000 58.013014 5.486672 17.314665 17.116485 0.000000 2.208163 
24901.00 1431.78 100.138999 0.000000 57.991152 5.374572 17.376030 17.166457 0.000000 2.230789 
24801.00 1431.49 100.138999 0.000000 57.968737 5.260165 17.438698 17.217414 0.000000 2.253985 
24701.00 1431.20 100.138999 0.000000 57.945750 5.143380 17.502709 17.269388 0.000000 2.277772 
24601.00 1430.91 100.138999 0.000000 57.922173 5.024144 17.568107 17.322407 0.000000 2.302167 
24501.00 1430.62 100.138999 0.000000 57.897986 4.902379 17.634936 17.376505 0.000000 2.327193 
24401.00 1430.33 100.138999 0.000000 57.873167 4.778004 17.703241 17.431716 0.000000 2.352871 
24301.00 1430.03 100.138999 0.000000 57.847695 4.650936 17.773072 17.488075 0.000000 2.379222 
24201.00 1429.74 100.138999 0.000000 57.821548 4.521086 17.844477 17.545617 0.000000 2.406270 
24101.00 1429.44 100.138999 0.000000 57.794701 4.388365 17.917511 17.604383 0.000000 2.434040 
24001.00 1429.14 100.138999 0.000000 57.767131 4.252676 17.992226 17.664410 0.000000 2.462557 
23901.00 1428.84 100.138999 0.000000 57.738810 4.113919 18.068681 17.725742 0.000000 2.491847 
23801.00 1428.54 100.138999 0.000000 57.709712 3.971991 18.146934 17.788422 0.000000 2.521939 
23701.00 1428.23 100.138999 0.000000 57.679809 3.826783 18.227049 17.852496 0.000000 2.552862 
23601.00 1427.93 100.138999 0.000000 57.649071 3.678181 18.309090 17.918011 0.000000 2.584646 
